1_Baseline_1,1_HIGH_1,1_REST_1,1_HIGH_2,1_REST_2,1_LOW_1,1_REST_3,1_LOW_2,1_REST_4,1_HIGH_3,1_REST_5,1_LOW_3,1_REST_6,1_LOW_4,1_REST_7,1_HIGH_4,1_REST_8,1_HIGH_5,1_REST_9,1_LOW_5,1_REST_10,1_LOW_6,1_REST_11,1_HIGH_6,1_REST_12,1_HIGH_7,1_REST_13,1_HIGH_8,1_REST_14,1_LOW_7,1_REST_15,1_LOW_8,1_REST_16,1_HIGH_9,1_REST_17,1_LOW_9,1_REST_18,1_LOW_10,1_REST_19,1_HIGH_10,1_REST_20,1_HIGH_11,1_REST_21,1_LOW_11,1_REST_22,1_LOW_12,1_REST_23,1_HIGH_12
0.4967776834964752,0.498796135187149,0.49537393450737,0.494761973619461,0.4941622912883758,0.5064733028411865,0.4988089203834533,0.4995511472225189,0.4997994005680084,0.4956452548503876,0.4995893537998199,0.5030245184898376,0.5006287097930908,0.4974701702594757,0.5002356767654419,0.4994772672653198,0.5009970664978027,0.5035463571548462,0.4989414513111114,0.5005320906639099,0.5022773146629333,0.4995582103729248,0.4951781928539276,0.4993099272251129,0.4985249638557434,0.499443382024765,0.499296098947525,0.5009689331054688,0.4973452985286712,0.4969913363456726,0.4969571828842163,0.498940646648407,0.4961624443531036,0.500581681728363,0.4965057969093323,0.5025272965431213,0.5001420974731445,0.4978797733783722,0.498794287443161,0.5005529522895813,0.4967383444309234,0.5012551546096802,0.4978159964084625,0.4965315759181976,0.4962258636951446,0.4961160719394684,0.4971867203712463,0.496856540441513
0.4949440956115722,0.4982378184795379,0.4917626082897186,0.4982169568538666,0.496926486492157,0.5058504343032837,0.5002917051315308,0.4998864531517029,0.4962305128574371,0.4951817095279693,0.4985204339027405,0.5036037564277649,0.5016046762466431,0.5033146739006042,0.5023151636123657,0.5001842379570007,0.5001769065856934,0.5037229657173157,0.4976429045200348,0.4993385076522827,0.5016093254089355,0.4989572465419769,0.4982569515705108,0.4962802231311798,0.4975183606147766,0.4933216869831085,0.4938665330410003,0.5021397471427917,0.4981232583522796,0.4959162771701813,0.4972650706768036,0.4999248683452606,0.4965752363204956,0.5005444288253784,0.4969383478164673,0.5031868815422058,0.4993248581886291,0.4968767762184143,0.4989658892154693,0.5002042055130005,0.4998955428600311,0.5007433295249939,0.4996168613433838,0.4967970252037048,0.4985325634479522,0.4989268481731415,0.4944931864738464,0.4963774383068084
0.4986393451690674,0.4996035397052765,0.4957517385482788,0.4980441629886627,0.4967767000198364,0.5048949122428894,0.4941968619823456,0.4991630613803863,0.5018347501754761,0.4950522482395172,0.4982118904590606,0.5023729801177979,0.5004661679267883,0.5019907355308533,0.4985980987548828,0.5011951327323914,0.4989480078220367,0.5048704147338867,0.4996117353439331,0.5020015239715576,0.4995101392269134,0.4990992844104767,0.4944289028644562,0.4995970726013183,0.4975611865520477,0.4996975660324096,0.4988293945789337,0.5008247494697571,0.4991488754749298,0.4976638555526733,0.4981944262981415,0.4948730170726776,0.4979196488857269,0.5016626119613647,0.4978087246417999,0.5013922452926636,0.4950286448001861,0.4976916909217834,0.4936688840389251,0.4994876384735107,0.4988490343093872,0.4995262026786804,0.4998860657215118,0.4951691329479217,0.4974396824836731,0.5002461075782776,0.4977532625198364,0.4934217631816864
0.4959296286106109,0.4941363334655761,0.4964950084686279,0.500481903553009,0.4966702163219452,0.5062160491943359,0.4971895515918731,0.5003025531768799,0.501042366027832,0.4911634922027588,0.4994300007820129,0.5008795857429504,0.5018098950386047,0.5008643269538879,0.5000829696655273,0.4982246160507202,0.4975265860557556,0.5032386183738708,0.4996383190155029,0.5003867149353027,0.4994359910488128,0.4999059736728668,0.4989782273769378,0.4959665536880493,0.4963457882404327,0.4983419477939605,0.4928747117519378,0.4996210634708404,0.4974214434623718,0.4966183304786682,0.4974314570426941,0.4985731244087219,0.4974705576896667,0.4958212375640869,0.4963878989219665,0.5043416619300842,0.498820036649704,0.4964442253112793,0.4984640479087829,0.5005754828453064,0.4969139695167541,0.5023954510688782,0.4978547096252441,0.498057097196579,0.4963781833648681,0.4991943836212158,0.4942416846752167,0.4978894293308258
0.4950062930583954,0.4976785480976105,0.493838906288147,0.4977177679538727,0.4965227544307709,0.5055575966835022,0.4945686161518097,0.5008301138877869,0.501323401927948,0.4935480058193207,0.4970582723617553,0.5020051002502441,0.498742014169693,0.5024179220199585,0.4987883567810058,0.4995273947715759,0.5004006624221802,0.5047008991241455,0.4984081983566284,0.4989455044269562,0.4986860156059265,0.4988235533237457,0.4982801973819732,0.5005623698234558,0.4996997714042663,0.4966475963592529,0.4971392452716827,0.4994058310985565,0.4987366199493408,0.4967527091503143,0.4944866597652435,0.4966452717781067,0.4974403977394104,0.5011656284332275,0.4944941699504852,0.5031430125236511,0.4999940693378448,0.4972756206989288,0.4971261620521545,0.4965673983097076,0.497600257396698,0.5017833113670349,0.4980005025863647,0.4973869025707245,0.498071551322937,0.4982253313064575,0.4985247850418091,0.4934549331665039
0.498650312423706,0.5005246996879578,0.4967725276947021,0.4972889721393585,0.4979385435581207,0.5045177340507507,0.4974482953548431,0.4990708827972412,0.4985022842884063,0.4935138523578644,0.4988649487495422,0.5002924799919128,0.4944226741790771,0.5010818839073181,0.4961065351963043,0.5011013150215149,0.4999028742313385,0.5054777264595032,0.4983184337615967,0.5001996755599976,0.4991753995418548,0.5003841519355774,0.49799245595932,0.5019798874855042,0.4939095675945282,0.4968981742858886,0.4994714856147766,0.5013231039047241,0.4972877502441406,0.4975781440734863,0.4993265867233276,0.4960499703884125,0.4975590705871582,0.5005611777305603,0.4977378845214844,0.5008994340896606,0.5011016130447388,0.4966605901718139,0.4990525841712951,0.4995890259742737,0.4969017207622528,0.4956929087638855,0.4987058043479919,0.4974009692668915,0.4992874264717102,0.4955001175403595,0.4983565509319305,0.4945358633995056
0.4965171813964844,0.4991304576396942,0.4954844713211059,0.4971149563789367,0.4937346875667572,0.5047605037689209,0.4976173043251037,0.4937883913516998,0.5021197199821472,0.496532678604126,0.4979443550109863,0.5010467171669006,0.4944245219230652,0.5005505084991455,0.5004679560661316,0.5017473697662354,0.497688889503479,0.5034960508346558,0.4986661672592163,0.499239057302475,0.4988209009170532,0.49946129322052,0.4983265697956085,0.499487042427063,0.4999937415122986,0.4990212023258209,0.4975561201572418,0.4988458454608917,0.4988160729408264,0.4963453710079193,0.4966695606708526,0.5002980828285217,0.4980224370956421,0.4966630339622497,0.4930382668972015,0.501726508140564,0.4992746114730835,0.4941279292106628,0.4982210993766784,0.4986837804317474,0.4963968098163605,0.4995081126689911,0.4989165067672729,0.4961175918579101,0.4984479546546936,0.4994928538799286,0.4983626008033752,0.4982004463672638
0.498316079378128,0.5005019903182983,0.4956425428390503,0.4997187256813049,0.4961201846599579,0.5037980079650879,0.4967341721057892,0.4950602948665619,0.5021584630012512,0.4952289164066314,0.4976881742477417,0.5011522769927979,0.4994019865989685,0.5008192658424377,0.4992823600769043,0.5024540424346924,0.4976452887058258,0.50323486328125,0.4960310757160187,0.4978410005569458,0.5003279447555542,0.4980117976665497,0.4971101582050323,0.5004554986953735,0.4989634454250335,0.4975495636463165,0.4962579905986786,0.4995840191841125,0.4995478987693786,0.4989717304706573,0.4996297061443329,0.5000916123390198,0.4967613518238067,0.5004639625549316,0.4978918433189392,0.5013842582702637,0.4998959004878998,0.495985597372055,0.495038777589798,0.4988664388656616,0.4976795613765716,0.5013755559921265,0.4980883002281189,0.49684938788414,0.4986194372177124,0.4981194138526916,0.4987091720104217,0.4990254640579223
0.4983658194541931,0.4985263347625732,0.4959207773208618,0.497674822807312,0.495787501335144,0.5042173266410828,0.4995344579219818,0.5003620982170105,0.5005688667297363,0.4953333437442779,0.4983217418193817,0.5023517608642578,0.4986959397792816,0.4965284168720245,0.5007345676422119,0.4990030825138092,0.4982021450996399,0.5047189593315125,0.4957080483436584,0.4996577799320221,0.4991759359836578,0.4990018308162689,0.4997738003730774,0.5013116598129272,0.5014791488647461,0.496380478143692,0.4933735728263855,0.5012186169624329,0.4984731376171112,0.4989940226078033,0.4988507628440857,0.4997181892395019,0.4963572323322296,0.4991149306297302,0.4960697293281555,0.5020276308059692,0.4988690912723541,0.4962865710258484,0.4971358776092529,0.4990634024143219,0.4995757639408111,0.4996710121631622,0.497467428445816,0.4988972544670105,0.5003173351287842,0.4983727931976318,0.500152051448822,0.4929998219013214
0.493228018283844,0.4982299506664276,0.4926260709762573,0.4999434649944305,0.4993154108524322,0.504075825214386,0.4996495246887207,0.4989872276782989,0.4971186518669128,0.4963769614696502,0.4947869181632995,0.4978285133838653,0.4986981153488159,0.4994637370109558,0.5004035830497742,0.4997914433479309,0.4982590079307556,0.503690242767334,0.5002662539482117,0.4994278252124786,0.5007075667381287,0.4986709356307983,0.4972881078720093,0.5005167126655579,0.4981321990489959,0.4988795220851898,0.4964412450790405,0.5000410676002502,0.4995015859603882,0.4924120903015136,0.4985902011394501,0.4968551695346832,0.4975987076759338,0.500704288482666,0.4951913058757782,0.5021790862083435,0.4985578954219818,0.4975338280200958,0.4930324554443359,0.4988756775856018,0.500446081161499,0.5004392266273499,0.499052882194519,0.4979278445243835,0.4996493458747864,0.4973916113376617,0.4981873333454132,0.4935429096221924
0.4960399568080902,0.4956374764442444,0.4970883727073669,0.5000222325325012,0.4993621110916137,0.5035600066184998,0.498352587223053,0.493131160736084,0.5033905506134033,0.4959486722946167,0.500289261341095,0.5009321570396423,0.4993697106838226,0.5008899569511414,0.5007802248001099,0.5005038380622864,0.4972869753837585,0.4988099336624145,0.496787428855896,0.4989258348941803,0.4989900290966034,0.4937537014484405,0.4979285597801208,0.5008981823921204,0.4987674057483673,0.4972992539405823,0.4970171153545379,0.5013560652732849,0.4971944987773895,0.4973935484886169,0.495481014251709,0.4973005950450897,0.4973312020301819,0.495668351650238,0.4973259270191192,0.5031062960624695,0.4976234138011932,0.4975122809410095,0.4980241656303406,0.500680685043335,0.4967394769191742,0.5002378821372986,0.4973277151584625,0.5001157522201538,0.5007187128067017,0.4985598623752594,0.49952232837677,0.4978246092796325
0.4926449954509735,0.4992120265960693,0.5006647109985352,0.4980264008045196,0.5001323819160461,0.5043878555297852,0.4973460733890533,0.4970372319221496,0.5032526850700378,0.4947836697101593,0.4985145628452301,0.5002367496490479,0.4992403090000152,0.4994484484195709,0.4999225735664367,0.4994761049747467,0.4941109716892242,0.5029847621917725,0.4984831511974334,0.4945298135280609,0.4988968670368194,0.4988291263580322,0.497862845659256,0.4994618892669678,0.5000046491622925,0.4972662031650543,0.4979555010795593,0.4994879961013794,0.4968648254871368,0.4958528876304626,0.4999987185001373,0.4968812763690948,0.4964973330497741,0.5004860758781433,0.4928787350654602,0.5011805295944214,0.4991219639778137,0.4963484704494476,0.4975441396236419,0.4997554421424866,0.4990314245223999,0.4993230700492859,0.4982890486717224,0.499172031879425,0.5020138025283813,0.4996383786201477,0.4998352229595184,0.4992600679397583
0.4964698851108551,0.4965914189815521,0.4994590282440185,0.4963659048080444,0.5006725192070007,0.5038706064224243,0.4935576319694519,0.5000017285346985,0.4980802237987518,0.4949877560138702,0.498105376958847,0.4948514699935913,0.4977259039878845,0.4998080730438232,0.4996762871742248,0.4997274875640869,0.4995046257972717,0.5036910176277161,0.4970877766609192,0.4990389943122864,0.4972519874572754,0.4982525706291199,0.4987383782863617,0.4999031722545624,0.5005213618278503,0.497599333524704,0.4981498122215271,0.4980791807174682,0.4985313415527344,0.497760146856308,0.5018442273139954,0.4980511963367462,0.4936686754226684,0.5016794800758362,0.4984039962291717,0.5013384222984314,0.4990784227848053,0.4986603260040283,0.497679203748703,0.4977955818176269,0.4973266720771789,0.5004516243934631,0.4995549917221069,0.4988919794559479,0.5000547170639038,0.4984270632266998,0.4972793757915497,0.5000735521316528
0.4978585541248321,0.4925812780857086,0.502528965473175,0.4973490238189697,0.4997886717319488,0.4972742795944214,0.497730553150177,0.4989181160926819,0.5018012523651123,0.4954314529895782,0.4974039196968078,0.4989663958549499,0.4974713623523712,0.5013085603713989,0.4972990155220032,0.4996981620788574,0.4985623657703399,0.5028990507125854,0.4929336905479431,0.4999924302101135,0.5008335113525391,0.4987487196922302,0.4984973669052124,0.4976544082164764,0.502225935459137,0.4966014623641968,0.4987559914588928,0.4981075823307037,0.4982972741127014,0.4957962036132812,0.5031413435935974,0.4978024065494537,0.4975638091564178,0.5017117261886597,0.498167484998703,0.5000386238098145,0.4993620812892914,0.4980729222297668,0.4978174269199371,0.4939381778240204,0.4997866451740265,0.5001397728919983,0.4984945654869079,0.4992357194423675,0.5025790929794312,0.4980096518993377,0.4983259439468384,0.5019757747650146
0.4974305629730224,0.4996182918548584,0.5023301839828491,0.4994845390319824,0.5010768175125122,0.5014100074768066,0.4976186752319336,0.4997656941413879,0.5010414123535156,0.4928101599216461,0.499560534954071,0.498334527015686,0.4986838698387146,0.4969350397586822,0.4988704621791839,0.4992888569831848,0.4976856708526611,0.5028767585754395,0.4981014430522918,0.4997313916683197,0.4973111152648926,0.4992418587207794,0.4988802373409271,0.5016568899154663,0.4998317062854767,0.4965565502643585,0.5016182661056519,0.5008648037910461,0.4978677630424499,0.4966786801815033,0.501804530620575,0.4982645809650421,0.4980585873126983,0.4944804906845093,0.4969330430030823,0.5001279711723328,0.4994661808013916,0.4974789023399353,0.4983838200569153,0.5008395314216614,0.5002192854881287,0.4994432032108307,0.5000900030136108,0.5020996928215027,0.5019463300704956,0.4999165534973144,0.499349445104599,0.5006700754165649
0.4990131855010986,0.4959150552749634,0.5021193623542786,0.4932033717632293,0.5021308660507202,0.5029502511024475,0.4953214824199676,0.4998762905597687,0.4953475594520569,0.4963826239109039,0.4970859587192535,0.500689685344696,0.4990270435810089,0.4946544170379638,0.4978406429290771,0.4993188381195068,0.4983995854854584,0.5007761120796204,0.4926803410053253,0.4994711577892303,0.4989705383777618,0.4976074993610382,0.4978651702404022,0.5000701546669006,0.5003829598426819,0.4972987771034241,0.5009450912475586,0.4979064762592315,0.4970608651638031,0.4970616996288299,0.5003994107246399,0.495217889547348,0.4976447522640228,0.4986079633235931,0.4978096187114715,0.4998159408569336,0.4989726543426513,0.4959783554077148,0.4994103014469147,0.49782595038414,0.502297043800354,0.4993580281734466,0.4974379539489746,0.499547928571701,0.5026890635490417,0.4972158372402191,0.4974278807640075,0.5000900030136108
0.4963513910770416,0.4978169798851013,0.5043076276779175,0.497588038444519,0.5016272068023682,0.5018322467803955,0.5002180933952332,0.4940052628517151,0.4954594373703003,0.4957430064678192,0.4962721467018127,0.4996567964553833,0.4978778958320617,0.4999268352985382,0.4939603805541992,0.497929573059082,0.4981023669242859,0.502110481262207,0.4992608428001404,0.4933100640773773,0.4994545876979828,0.5002649426460266,0.4992761015892029,0.4944015443325043,0.4964099824428558,0.4971734881401062,0.4999205768108368,0.499825656414032,0.4946661293506622,0.4983905255794525,0.501744270324707,0.4975243210792541,0.4981143474578857,0.4982613027095794,0.4962711334228515,0.4996304810047149,0.4985587298870086,0.4957779347896576,0.498269647359848,0.4941267371177673,0.5003857016563416,0.4997119307518005,0.4982134997844696,0.5007648468017578,0.4960152506828308,0.4967479109764099,0.496778279542923,0.4957195222377777
0.4972738623619079,0.4949378669261932,0.501762330532074,0.4974481165409088,0.4979059398174286,0.5023096799850464,0.4991559386253357,0.4970677196979522,0.501449704170227,0.4971570074558258,0.4964224398136139,0.498706966638565,0.4965065121650696,0.4999875724315643,0.4984816610813141,0.4977854490280151,0.4998713433742523,0.5029416084289551,0.4969936907291412,0.4983093738555908,0.4985163807868957,0.4986509382724762,0.4994993805885315,0.4950541257858276,0.500419020652771,0.4970241487026214,0.5021626949310303,0.4939307570457458,0.4989151060581207,0.4962477385997772,0.5014575719833374,0.4990513026714325,0.4980751574039459,0.4996241629123688,0.4952194690704345,0.5003255009651184,0.4987314939498901,0.4929585754871368,0.4966591298580169,0.5003578662872314,0.50037682056427,0.4997271597385406,0.4994262456893921,0.501290500164032,0.5018949508666992,0.4940923452377319,0.4970681667327881,0.500937283039093
0.4990532100200653,0.497722864151001,0.5046927332878113,0.4951297342777252,0.5026441812515259,0.5007027387619019,0.4986716210842132,0.4983644783496856,0.4990280568599701,0.498412549495697,0.498267650604248,0.5009580850601196,0.4988292157649994,0.5005894899368286,0.4988649487495422,0.5004973411560059,0.4978244602680206,0.5001764893531799,0.4970581829547882,0.4982573091983795,0.4976628720760345,0.4986777305603027,0.4976995885372162,0.4992700219154358,0.4977335929870605,0.4975801408290863,0.5000219345092773,0.4997650682926178,0.4969866871833801,0.4980649054050445,0.4964976906776428,0.4972740113735199,0.4951774775981903,0.5014516711235046,0.496095210313797,0.5003265738487244,0.4978353381156921,0.4958004653453827,0.4966264367103576,0.4990768730640411,0.5011427998542786,0.4990318119525909,0.4933239221572876,0.5012826919555664,0.5008357763290405,0.499529629945755,0.4988695681095123,0.5011220574378967
0.4972698986530304,0.4959238469600677,0.5041025280952454,0.4962017238140106,0.4969871640205383,0.5030758380889893,0.4986922144889831,0.4979586899280548,0.4991913139820099,0.4941728115081787,0.4927921295166015,0.4991557598114013,0.4970638453960418,0.5001104474067688,0.4992083311080932,0.498767614364624,0.4972136914730072,0.5009551644325256,0.4977817237377167,0.4930919408798218,0.4989637732505798,0.4985832870006561,0.4965532422065735,0.4983417391777038,0.4955752491950989,0.4979250133037567,0.5012827515602112,0.4991313517093658,0.4970470070838928,0.4953400194644928,0.5014342069625854,0.4963831305503845,0.4990284144878387,0.4981985092163086,0.4927886128425598,0.4987369179725647,0.4986826181411743,0.4958427846431732,0.4991650879383087,0.4988612830638885,0.4962520599365234,0.4943282306194305,0.4995798468589782,0.4956286251544952,0.4997834861278534,0.5005763173103333,0.4970026314258575,0.4963249266147613
0.4953165054321289,0.4974385797977447,0.5024192333221436,0.4963041543960571,0.5013290047645569,0.5010033845901489,0.4976008832454681,0.494519829750061,0.4998406767845154,0.4999393224716186,0.4986491799354553,0.4981927275657654,0.4984216690063476,0.4941746294498443,0.4984152317047119,0.4982507526874542,0.4949135482311249,0.5017030835151672,0.4950388073921203,0.4982471466064453,0.4977526664733886,0.498024433851242,0.49643674492836,0.4978176355361938,0.4987806677818298,0.4989617764949798,0.5028132796287537,0.4992843568325043,0.4978413581848144,0.4950918853282928,0.501059353351593,0.4975152909755707,0.5007297992706299,0.4983506202697754,0.4962661862373352,0.4992553293704986,0.4977946579456329,0.4989122450351715,0.4986049234867096,0.4978684186935425,0.5004781484603882,0.5001105070114136,0.4980349242687225,0.4993558228015899,0.5021064877510071,0.4971354007720947,0.4976019263267517,0.4996604323387146
0.4968566596508026,0.4968331754207611,0.496718019247055,0.4983854293823242,0.4983547925949096,0.5001707673072815,0.4976892471313476,0.4985220730304718,0.5004673004150391,0.5002535581588745,0.492656946182251,0.4980911612510681,0.4967544972896576,0.499080091714859,0.4982228279113769,0.4963069558143616,0.4974625706672668,0.5009244680404663,0.4990391433238983,0.4938976764678955,0.4935125708580017,0.4986811876296997,0.4980680644512176,0.4985163509845733,0.4999077320098877,0.4956996738910675,0.5015028715133667,0.50007164478302,0.4993923902511596,0.4963603615760803,0.5028731226921082,0.4971722364425659,0.5016498565673828,0.497768223285675,0.4968911409378052,0.4981178641319275,0.4982818365097046,0.4969789683818817,0.4974133670330047,0.4973230957984924,0.5010215640068054,0.4995833933353424,0.4928001463413238,0.5005828738212585,0.4986074864864349,0.5002208352088928,0.4974113404750824,0.5019011497497559
0.4969862699508667,0.4963754415512085,0.5010523200035095,0.498128592967987,0.501869261264801,0.4995656907558441,0.4961461424827575,0.4966398477554321,0.4980564415454864,0.5002526640892029,0.495671659708023,0.4967415332794189,0.4985588788986206,0.5005357265472412,0.4981494545936584,0.4946160018444061,0.4976749122142792,0.500458836555481,0.496665358543396,0.4973088502883911,0.493353396654129,0.4978992640972137,0.4971100389957428,0.4980464577674866,0.4996601045131683,0.4993880093097687,0.50281822681427,0.4978240132331848,0.4996102154254913,0.4962636232376098,0.5024682879447937,0.4969104826450348,0.500845730304718,0.4989979267120361,0.4962881207466125,0.4988440871238708,0.4934771060943603,0.4956013560295105,0.4994973540306091,0.4944991171360016,0.4991922378540039,0.5006069540977478,0.4989961683750152,0.5008859634399414,0.4950583577156067,0.5007258653640747,0.4982582628726959,0.4991033673286438
0.4966996312141418,0.4992550611495971,0.5017172694206238,0.4995620250701904,0.5018770694732666,0.5012441277503967,0.4975064694881439,0.4964328110218048,0.4986782073974609,0.5002811551094055,0.498599499464035,0.4974715113639831,0.4980012476444244,0.4988999962806701,0.493014395236969,0.4969922006130218,0.4992012083530426,0.5012813806533813,0.4965162277221679,0.4979269802570343,0.4982946515083313,0.4998177289962768,0.4988091886043548,0.4981723725795746,0.4985697567462921,0.4971681237220764,0.4982244968414306,0.4940661787986755,0.4981124699115753,0.4975762665271759,0.4996837377548218,0.4989431202411651,0.5008809566497803,0.4992833435535431,0.4972970485687256,0.5008374452590942,0.4971472024917602,0.4976176619529724,0.4980722963809967,0.4995302557945251,0.4998808801174164,0.4948440492153168,0.4978974461555481,0.4950985312461853,0.4988960921764374,0.4964743554592132,0.493857741355896,0.499460756778717
0.4952913522720337,0.4996876716613769,0.4977003037929535,0.4996837377548218,0.5026286244392395,0.5016325116157532,0.4956521093845367,0.4980494976043701,0.4944037199020386,0.5023606419563293,0.4970570802688598,0.4991179704666137,0.4970073997974396,0.4978759884834289,0.499283105134964,0.4968125820159912,0.4966213703155517,0.4995613694190979,0.4965928196907043,0.4978954195976257,0.4932298362255096,0.4970223307609558,0.4997495114803314,0.4989606142044067,0.498202383518219,0.4999094009399414,0.5001005530357361,0.4986966550350189,0.4978783130645752,0.4972292780876159,0.5022589564323425,0.4970123767852783,0.4997290670871734,0.4997559189796448,0.4986788332462311,0.4986996352672577,0.497569590806961,0.498329758644104,0.4964475035667419,0.4995766878128052,0.4990919232368469,0.4981297850608825,0.4933594465255737,0.4998459219932556,0.5001122951507568,0.5016513466835022,0.4977791309356689,0.4992535412311554
0.4964246153831482,0.49887615442276,0.5004607439041138,0.5001413822174072,0.4996955394744873,0.4955330193042755,0.4973189532756805,0.4962387382984161,0.4985574781894684,0.5013591051101685,0.4962082803249359,0.4987469911575317,0.4970267117023468,0.5011097192764282,0.4946695268154144,0.4979161620140075,0.4965128004550934,0.498858630657196,0.4976007044315338,0.4929988384246826,0.4969498217105865,0.4928638637065887,0.4996789991855621,0.4991146624088287,0.4994800090789795,0.5017907023429871,0.4996178746223449,0.4984270334243774,0.4933691620826721,0.4949498474597931,0.5009176135063171,0.4927155971527099,0.5002956390380859,0.499131828546524,0.4961746335029602,0.4988394975662231,0.4982242882251739,0.4966763257980346,0.4978109002113342,0.4971495568752289,0.5009625554084778,0.4986387491226196,0.497858464717865,0.5008894801139832,0.5009984374046326,0.5025612711906433,0.4937822520732879,0.4989819526672363
0.4957444369792938,0.4980199038982391,0.5000293850898743,0.5026590824127197,0.501222550868988,0.4975236356258392,0.4965733289718628,0.4959371387958526,0.4966245889663696,0.5003511309623718,0.4985250830650329,0.4977362751960754,0.4997967183589935,0.5000728368759155,0.4964955449104309,0.4983733296394348,0.4976564347743988,0.498753011226654,0.4975528717041015,0.493882805109024,0.4971408545970917,0.4967119395732879,0.4997628927230835,0.494657427072525,0.5010082721710205,0.5032479763031006,0.5019413828849792,0.4996032416820526,0.4980385601520538,0.4950475394725799,0.5000069737434387,0.497631698846817,0.5005689263343811,0.4992625117301941,0.4982645213603973,0.4998737871646881,0.4976785480976105,0.496812492609024,0.4974559843540191,0.4940924644470215,0.4949312508106231,0.4951918721199035,0.4969989061355591,0.5013836622238159,0.4962252676486969,0.5015507936477661,0.4973170459270477,0.4959850609302521
0.4912660717964172,0.4974347949028015,0.5007636547088623,0.5016807913780212,0.5013856291770935,0.4965014159679413,0.4971079230308532,0.4976123869419098,0.4980124831199646,0.4985865652561188,0.4962088167667389,0.4990769028663635,0.4996518492698669,0.5009398460388184,0.4980386197566986,0.4974233210086822,0.4960166811943054,0.4989060759544372,0.4978645443916321,0.4962396323680877,0.4980905652046203,0.4976041316986084,0.5031241774559021,0.4989244937896728,0.4976399540901184,0.5020158886909485,0.5020433068275452,0.4977581799030304,0.4987528324127197,0.4954859912395477,0.4948768019676208,0.4967851638793945,0.5015385150909424,0.4975781738758087,0.4966561496257782,0.4992784261703491,0.4982115924358368,0.4978010356426239,0.4978792667388916,0.4996893107891083,0.498882383108139,0.4936527609825134,0.4948501586914062,0.5002287030220032,0.4945294559001922,0.5021615624427795,0.4990687668323517,0.4979214668273926
0.4922885000705719,0.5017338991165161,0.4987959265708923,0.5029655694961548,0.4953090846538543,0.498622179031372,0.4971795678138733,0.4968714416027069,0.4939153790473938,0.5019799470901489,0.4979082942008972,0.4936613738536834,0.4981558620929718,0.5001228451728821,0.499125987291336,0.4991072416305542,0.4982308149337768,0.4997066259384155,0.4978671967983246,0.4969233870506286,0.4951372742652893,0.4947695434093475,0.5014548897743225,0.4992227256298065,0.4959664344787597,0.5021940469741821,0.495243102312088,0.4982367753982544,0.4975605309009552,0.4975649714469909,0.4999775290489197,0.4968504905700683,0.5003983378410339,0.4975055754184723,0.4941607415676117,0.5012162923812866,0.4971037805080414,0.4985547959804535,0.4988770484924316,0.4968056380748749,0.4986224472522735,0.4979386031627655,0.4943954050540924,0.4990890026092529,0.5008779168128967,0.4973311722278595,0.4969046711921692,0.5001728534698486
0.4975615441799164,0.502060055732727,0.5005787014961243,0.5018828511238098,0.4948923587799072,0.4998681247234344,0.4978221952915191,0.4977677166461944,0.4961714446544647,0.4990770220756531,0.4990653395652771,0.5005539059638977,0.4962966442108154,0.4991410672664642,0.4963844120502472,0.4994450211524963,0.4969295859336853,0.4981704652309418,0.4977178573608398,0.4967307448387146,0.4980733096599579,0.4925278425216675,0.5005964636802673,0.4974378645420074,0.4980944395065307,0.5019843578338623,0.4955283105373382,0.4935305714607239,0.4969794750213623,0.4964722990989685,0.4945584535598755,0.4985213577747345,0.5002594590187073,0.4977345764636993,0.4989666938781738,0.501064121723175,0.4980788826942444,0.5002894997596741,0.4979181885719299,0.4972333610057831,0.4980798363685608,0.4990116059780121,0.4973419308662414,0.5007033944129944,0.4979746043682098,0.5012655854225159,0.4973548352718353,0.4986334443092346
0.5007113814353943,0.5029857158660889,0.4989167153835296,0.5019025206565857,0.4999510943889618,0.5011656284332275,0.4970301389694214,0.4956740438938141,0.4987663328647613,0.495432436466217,0.498396635055542,0.4940800666809082,0.4963788390159607,0.5004004836082458,0.4957441985607147,0.4967280328273773,0.4974760115146637,0.501249372959137,0.4963240623474121,0.4958482682704925,0.4997315406799316,0.4963131248950958,0.5010639429092407,0.4975558817386627,0.4996186792850494,0.5019232630729675,0.4984398186206817,0.4987365901470184,0.4998852908611297,0.4957368075847626,0.4982019662857055,0.4981776773929596,0.5003355741500854,0.4992010593414306,0.498123288154602,0.500605046749115,0.4968287944793701,0.5012243390083313,0.4982529282569885,0.4982556402683258,0.4961282908916473,0.4979718029499054,0.4983340203762054,0.4973962903022766,0.4991205930709839,0.4970176219940185,0.498959481716156,0.500480592250824
0.4985912144184112,0.5007498264312744,0.5006170868873596,0.5037069916725159,0.4985978305339813,0.4999938011169433,0.4960369765758514,0.4978759884834289,0.4993303120136261,0.5012239813804626,0.4982328116893768,0.4991777241230011,0.4965759813785553,0.4982987940311432,0.4971227049827575,0.4983107149600982,0.4973766207695007,0.4983944296836853,0.4971300661563873,0.4962161779403686,0.4991073310375213,0.4976291358470917,0.5021974444389343,0.4993349611759186,0.4984508156776428,0.5009967088699341,0.4984340369701385,0.4948713183403015,0.4986084699630737,0.49713996052742,0.4979168176651001,0.4982042908668518,0.4947839081287384,0.4974544942378998,0.4991819858551025,0.4981803894042969,0.4981806576251983,0.500487208366394,0.4943242371082306,0.4976609051227569,0.4999093413352966,0.4996021091938019,0.4972142279148102,0.4989674091339111,0.4983188509941101,0.4995177388191223,0.4978787899017334,0.4996079504489898
0.5012091994285583,0.5020543336868286,0.4992907643318176,0.5033074021339417,0.4998203217983246,0.4990874826908111,0.4989867508411407,0.4961832761764526,0.4987298250198364,0.4988270699977875,0.500073254108429,0.4979069828987121,0.4978722035884857,0.4973651766777038,0.499513179063797,0.4973535537719726,0.4971403479576111,0.4978380501270294,0.4983368813991546,0.4988556504249573,0.4967389702796936,0.4976249635219574,0.5035818815231323,0.5000312328338623,0.4943817257881164,0.5006048083305359,0.5009490251541138,0.4974986016750335,0.4980397224426269,0.4978513717651367,0.4983262717723846,0.4988855421543121,0.5014702081680298,0.4991393983364105,0.4996110498905182,0.4989529550075531,0.4976848065853119,0.5022380352020264,0.4998746216297149,0.4929813146591186,0.4968241751194,0.4973633587360382,0.499246209859848,0.4982525706291199,0.4971607029438019,0.5000214576721191,0.4979059398174286,0.4977608323097229
0.5035596489906311,0.5045046806335449,0.5002977848052979,0.5009127259254456,0.4990761578083038,0.4976698160171509,0.4976076185703277,0.49660325050354,0.4987617433071136,0.4954992830753326,0.4997848272323608,0.4977613985538482,0.4926216304302215,0.4986268877983093,0.4977295100688934,0.4982171952724457,0.49312224984169,0.4982922375202179,0.4972097277641296,0.4980129599571228,0.492710143327713,0.4961268305778503,0.5017098784446716,0.4984663724899292,0.4992903769016266,0.5006349086761475,0.4980630576610565,0.4967522323131561,0.4968002736568451,0.5004224181175232,0.4980386793613434,0.496596485376358,0.4984690845012665,0.4984702467918396,0.5009284019470215,0.4994529485702514,0.4977512955665588,0.5021215677261353,0.5014255046844482,0.4983540773391723,0.4976530373096466,0.498891532421112,0.498425543308258,0.4972967505455017,0.4993388652801513,0.4960370659828186,0.4968764185905456,0.4990690350532532
0.501649796962738,0.5033664703369141,0.4974230527877807,0.5026385188102722,0.4979363083839416,0.4996522068977356,0.4955761730670929,0.496769517660141,0.4994785487651825,0.4982510507106781,0.4990759491920471,0.499776154756546,0.4972316324710846,0.4932728707790375,0.4977026581764221,0.4972269833087921,0.4976485967636108,0.4997101128101349,0.4963744580745697,0.4942503869533539,0.4953490495681762,0.4965065419673919,0.5000790357589722,0.4971567392349243,0.4980405867099762,0.5019088387489319,0.5004593729972839,0.4962376058101654,0.4994805455207824,0.5010785460472107,0.498708963394165,0.4967582523822784,0.4984899461269378,0.4962357878684997,0.5001464486122131,0.498015820980072,0.4976521730422973,0.496684193611145,0.4994546473026275,0.4969018101692199,0.4958324432373047,0.4949084520339966,0.4978533983230591,0.4980084896087646,0.4978615045547485,0.5025532245635986,0.4981174767017364,0.4990173578262329
0.5031802654266357,0.5023928284645081,0.4973337948322296,0.5033875703811646,0.4961996078491211,0.4991388916969299,0.4971198141574859,0.4989833235740661,0.4996496737003326,0.4971781373023987,0.5004189014434814,0.4954288005828857,0.4941640496253967,0.4997197985649109,0.4984372854232788,0.5006810426712036,0.4966654479503631,0.5003854632377625,0.4980181753635406,0.4993004500865936,0.4968787133693695,0.4954661726951599,0.4958348870277405,0.4972139000892639,0.4971995651721954,0.5027762651443481,0.4986366331577301,0.4976278245449066,0.4977565705776214,0.4949618875980377,0.4986914992332458,0.4965861141681671,0.4985110461711883,0.4973072409629822,0.4998200237751007,0.4981196522712707,0.4933829009532928,0.5009968280792236,0.500984787940979,0.4981096386909485,0.4993467330932617,0.4942607581615448,0.4976787567138672,0.4993279576301574,0.4976114928722381,0.5012248754501343,0.4977943301200866,0.4981841146945953
0.504800021648407,0.503633975982666,0.4942511320114136,0.5036148428916931,0.4978838860988617,0.4979782104492187,0.4960871040821075,0.5000907778739929,0.4974255561828613,0.4983588755130768,0.5008136034011841,0.4969623684883117,0.4958433210849762,0.4982959330081939,0.4993432760238647,0.5014234781265259,0.4970743656158447,0.4976796209812164,0.4984558820724487,0.4992848038673401,0.4945329129695892,0.4921648800373077,0.502741813659668,0.4984587132930755,0.4982855916023254,0.5003495216369629,0.4979705512523651,0.4983148276805877,0.4966981410980224,0.4999582171440124,0.5003225803375244,0.4963393211364746,0.4983173906803131,0.49761763215065,0.4986011087894439,0.500049889087677,0.4964421391487121,0.4977915287017822,0.5015431046485901,0.4971730411052704,0.498291552066803,0.4975609183311462,0.4968973994255066,0.494217962026596,0.4934748113155365,0.501110315322876,0.4980554282665252,0.49986132979393
0.503441572189331,0.5002064108848572,0.4973509311676025,0.5021380186080933,0.5001742839813232,0.4982787072658539,0.496159017086029,0.4994502961635589,0.4984982907772064,0.497969776391983,0.5043023824691772,0.4932921528816223,0.4975393414497375,0.4975903034210205,0.4981403946876526,0.5044081807136536,0.4963527321815491,0.4986553788185119,0.4976867437362671,0.4952990412712097,0.4974198639392853,0.4970966577529907,0.4994434118270874,0.4969410896301269,0.498436689376831,0.5019757747650146,0.4996487200260162,0.4972476959228515,0.4967201054096222,0.501873254776001,0.4939012229442596,0.4968272745609283,0.4992974102497101,0.4981180131435394,0.5005565285682678,0.4982302188873291,0.49945268034935,0.4998345375061035,0.4998428225517273,0.4968659877777099,0.499315857887268,0.4992730617523193,0.4979113340377807,0.4991436898708343,0.4980126917362213,0.5023581981658936,0.4942435920238495,0.4997683763504028
0.5032801032066345,0.5019072890281677,0.4989027678966522,0.4976308345794678,0.4974738359451294,0.4957466125488281,0.4932065904140472,0.5007038116455078,0.4970409274101257,0.4997775852680206,0.5014141201972961,0.497946172952652,0.4977238476276397,0.4979162812232971,0.4947599470615387,0.5008421540260315,0.4976356625556946,0.4959093928337097,0.4984648823738098,0.4993391335010528,0.4969280660152435,0.4947618246078491,0.4951485991477966,0.4929423034191131,0.4985308647155761,0.5000190734863281,0.4994869828224182,0.4957084953784942,0.4971527755260467,0.4998545050621032,0.4978534579277038,0.4981183409690857,0.4996761381626129,0.5001104474067688,0.5014429688453674,0.5004507303237915,0.4965763092041015,0.5023607015609741,0.501751184463501,0.4966451823711395,0.4979701936244964,0.4975033700466156,0.4978669881820678,0.4974665343761444,0.4998824894428253,0.50130695104599,0.497787594795227,0.4979672431945801
0.5030981302261353,0.5031076073646545,0.4986185133457184,0.5013429522514343,0.497866541147232,0.4978909194469452,0.4938476979732513,0.5018517971038818,0.4982973039150238,0.4967216849327087,0.5023298263549805,0.4985343217849731,0.4963487088680267,0.493734747171402,0.4947389364242553,0.5031836628913879,0.4962285161018371,0.4975177943706512,0.4954932034015655,0.5026105642318726,0.4991614520549774,0.4956284761428833,0.5010473728179932,0.5002554059028625,0.4961748421192169,0.5003724098205566,0.4942133128643036,0.4976448714733124,0.4991185665130615,0.5010265111923218,0.4977607429027557,0.4980422854423523,0.498947262763977,0.4952021539211273,0.5012145638465881,0.4998305141925812,0.4925515055656433,0.5005019903182983,0.5007067322731018,0.4968146979808807,0.4987896680831909,0.4998915791511535,0.4978547394275665,0.4995134770870209,0.497580885887146,0.4993253350257873,0.4997368454933166,0.4962373673915863
0.5030339360237122,0.501900851726532,0.4989218413829803,0.5017743110656738,0.4989750385284424,0.4939448237419128,0.5002838969230652,0.4980791211128235,0.4997248947620392,0.4975095987319946,0.5018824934959412,0.4993157088756561,0.4971347153186798,0.4969244599342346,0.492867112159729,0.5036152005195618,0.4961007833480835,0.4926973581314087,0.5016337633132935,0.5007055401802063,0.4987417161464691,0.4965313374996185,0.4961369335651397,0.498863011598587,0.4939498007297516,0.5001544952392578,0.4992347061634063,0.4980174601078033,0.4964874684810638,0.5005980730056763,0.4976148903369903,0.4988093972206116,0.500425398349762,0.4948477745056152,0.5005768537521362,0.4944451451301574,0.4966028332710266,0.4993873834609985,0.5007985234260559,0.4997931122779846,0.4980060458183288,0.4992451071739197,0.4976830780506134,0.4967934191226959,0.4993569552898407,0.5003606677055359,0.4946995079517364,0.500654935836792
0.5007378458976746,0.4963086545467376,0.4985960721969604,0.5006542205810547,0.4954005181789398,0.4963969886302948,0.5001363754272461,0.5012791156768799,0.498676061630249,0.4972361922264099,0.502758800983429,0.4965144395828247,0.4925671815872192,0.4981910288333893,0.4989787936210632,0.5032637715339661,0.4989280104637146,0.4962705373764038,0.5005494356155396,0.5037419199943542,0.4970416128635406,0.4978199303150177,0.4998624622821808,0.4994740784168243,0.4978924989700317,0.5000488758087158,0.4980201721191406,0.4969261884689331,0.4989203810691833,0.4954142570495605,0.500577986240387,0.5013638138771057,0.4976602792739868,0.4995762705802917,0.5001824498176575,0.500290036201477,0.4973136484622955,0.4963881075382232,0.4999135434627533,0.4982165396213531,0.4974689185619354,0.4976756572723388,0.4965765476226806,0.4986723363399505,0.4975955188274383,0.4991270899772644,0.50115567445755,0.4968702495098114
0.5009873509407043,0.5017922520637512,0.4988576173782348,0.4958371222019195,0.4973591268062591,0.4985002279281616,0.5021392703056335,0.5016748905181885,0.4961890280246734,0.497208684682846,0.5005614757537842,0.4986590147018432,0.4985599219799042,0.4978089332580566,0.4975847005844116,0.4991369247436523,0.4968096017837524,0.4972544610500335,0.5008411407470703,0.50148606300354,0.4960871338844299,0.4960905313491821,0.500589907169342,0.5013322830200195,0.4984559118747711,0.5009104013442993,0.4966545403003692,0.496732622385025,0.499837577342987,0.5015143752098083,0.4972718954086303,0.4963020384311676,0.4976716637611389,0.4935701787471771,0.4987253844738006,0.4977517426013946,0.498571366071701,0.4987611770629883,0.5003880858421326,0.4974460005760193,0.4990619719028473,0.4986505806446075,0.4930371642112732,0.4969018995761871,0.4985394775867462,0.5014548897743225,0.5007502436637878,0.4983590543270111
0.5002146363258362,0.4989539384841919,0.4933027029037475,0.5012897253036499,0.4977970421314239,0.4983664155006408,0.5008260011672974,0.5031841397285461,0.4965136349201202,0.497387021780014,0.4961722791194916,0.4975485801696777,0.4969621300697326,0.4977920949459076,0.4965728521347046,0.5064437985420227,0.4952543377876282,0.4961347877979278,0.5033945441246033,0.501873254776001,0.4993256330490112,0.4971767663955688,0.4992019236087799,0.4996115863323211,0.4989655017852783,0.4963554143905639,0.4970656037330627,0.495886743068695,0.5011956691741943,0.5017709136009216,0.4983803331851959,0.5023425817489624,0.4988797008991241,0.4971296191215515,0.499031662940979,0.4991873502731323,0.4972364902496338,0.5003573894500732,0.496067076921463,0.497794508934021,0.5001958608627319,0.4955620467662811,0.4978922009468078,0.4983326494693756,0.5002276301383972,0.5011959671974182,0.5019381642341614,0.4992098808288574
0.5009821653366089,0.5002753734588623,0.4983808696269989,0.4999267756938934,0.4969945847988128,0.500006377696991,0.5002900958061218,0.501240611076355,0.496815413236618,0.4977704584598541,0.5005459785461426,0.4976398348808288,0.4939747154712677,0.4976906180381775,0.4928180277347564,0.5034457445144653,0.5014815926551819,0.4954455494880676,0.5007840991020203,0.4999954998493194,0.4979656338691711,0.4929974973201751,0.499485582113266,0.5023232102394104,0.4966515898704529,0.4977416396141052,0.4982374310493469,0.4971156120300293,0.4994918704032898,0.495059609413147,0.4934492409229278,0.5013324618339539,0.5003942251205444,0.4969148933887481,0.5008310675621033,0.4984998404979706,0.499968558549881,0.4948725402355194,0.5010963082313538,0.4973150193691253,0.4976361095905304,0.4988427758216858,0.4927508234977722,0.4968416094779968,0.4978940188884735,0.4984485208988189,0.5020362734794617,0.5006088018417358
0.4957295358181,0.4979429543018341,0.4975940585136413,0.4994521737098694,0.5005379319190979,0.5029292106628418,0.5021744966506958,0.5041247010231018,0.4979134798049927,0.4990378618240356,0.502116858959198,0.4932548701763153,0.4974116384983063,0.4978192150592804,0.4927595257759094,0.5055700540542603,0.4998926520347595,0.4959822297096252,0.5010101199150085,0.5039643049240112,0.4964064061641693,0.4935059547424316,0.4975050687789917,0.502659261226654,0.4989650249481201,0.4985177218914032,0.4976211488246918,0.495877742767334,0.5008872747421265,0.5009078979492188,0.498574286699295,0.5039244294166565,0.4973076581954956,0.4991638362407684,0.4991900026798248,0.4980696439743042,0.4984674453735351,0.4997641444206238,0.5018900632858276,0.4952607154846191,0.4986059665679931,0.4984709620475769,0.4976989924907684,0.4979842901229858,0.500044047832489,0.4997924268245697,0.5013013482093811,0.4990001916885376
0.5013687014579773,0.4995094835758209,0.4985658228397369,0.4950480759143829,0.49855437874794,0.5011121034622192,0.5038602948188782,0.5001510977745056,0.4981653094291687,0.4925424754619598,0.4986363649368286,0.4992088377475738,0.4932811856269836,0.4977504312992096,0.4988297522068023,0.505608320236206,0.499345988035202,0.4960386455059051,0.5013158917427063,0.5023204684257507,0.4960748851299286,0.4986734092235565,0.4985024631023407,0.5020355582237244,0.4976484179496765,0.4981497824192047,0.4983640313148498,0.4984995126724243,0.5002179741859436,0.500186562538147,0.4966026544570923,0.5014948844909668,0.4935385584831238,0.4977974891662597,0.5002463459968567,0.4980520009994507,0.4994333386421203,0.5008286833763123,0.499204009771347,0.4978863894939422,0.4984388649463653,0.4997598528861999,0.4947495460510254,0.496913731098175,0.4982168972492218,0.4988503754138946,0.4966201484203338,0.4980426132678985
0.4999536871910095,0.497889369726181,0.497037410736084,0.4990246891975403,0.497616171836853,0.5024251341819763,0.5028675198554993,0.5005250573158264,0.498185247182846,0.497478574514389,0.5004549622535706,0.4964635670185089,0.4922745525836944,0.4979807436466217,0.4981524050235748,0.500438928604126,0.5019440650939941,0.4970130026340484,0.5011768937110901,0.5049665570259094,0.4968869388103485,0.5008490085601807,0.5003523826599121,0.5035253763198853,0.498814970254898,0.4993971586227417,0.4963231384754181,0.4961997270584106,0.5003991723060608,0.4988974034786224,0.4991427958011627,0.5021743178367615,0.4934453070163727,0.4953482151031494,0.4952908158302307,0.4976553320884704,0.4994232058525085,0.5002439618110657,0.4978154599666595,0.4983505606651306,0.4996902346611023,0.5013401508331299,0.4976379573345184,0.4974626898765564,0.4997513592243194,0.498418241739273,0.5004115700721741,0.4993307590484619
0.5000681281089783,0.4996711313724518,0.4963817298412323,0.4973670542240143,0.497465431690216,0.5058534145355225,0.5014635324478149,0.5024029612541199,0.4974420666694641,0.4966144561767578,0.5000877380371094,0.497715026140213,0.4972561299800873,0.4978671371936798,0.4986185431480407,0.5009995102882385,0.500715434551239,0.4983664155006408,0.5016419887542725,0.5035552978515625,0.4993557929992676,0.500180721282959,0.4994552731513977,0.5029279589653015,0.4994702339172363,0.498289406299591,0.4980099201202392,0.4987342953681946,0.4993503391742706,0.4991528391838074,0.4999871253967285,0.5008208751678467,0.4984548687934875,0.4986418783664703,0.4962482750415802,0.4955225884914398,0.5007439255714417,0.500445544719696,0.5002254843711853,0.5002263784408569,0.4983736276626587,0.5013054609298706,0.4977568984031677,0.4970883727073669,0.4986230731010437,0.4991262853145599,0.5017298460006714,0.4973168075084686
0.4984653890132904,0.5004957318305969,0.4979452192783355,0.4988899230957031,0.497142493724823,0.5048357844352722,0.5022213459014893,0.5021732449531555,0.4992275238037109,0.4977380037307739,0.4989373981952667,0.4976026713848114,0.4990644454956054,0.4979354739189148,0.4971351325511932,0.4985537528991699,0.5016610622406006,0.495191752910614,0.5027207732200623,0.5042285919189453,0.4993045628070831,0.5018860101699829,0.4984768629074096,0.5055274963378906,0.493436187505722,0.4994502365589142,0.4976012706756592,0.496919721364975,0.4966255724430084,0.4998180270195007,0.4939641058444977,0.4966461658477783,0.4987721145153045,0.4944575130939483,0.498857170343399,0.4981525838375091,0.4989804923534393,0.4998828768730163,0.4995751678943634,0.5002215504646301,0.493352323770523,0.5019006729125977,0.4953211843967438,0.4970113933086395,0.4970312118530273,0.4985356330871582,0.5013740658760071,0.4983439743518829
0.4980544149875641,0.4942179024219513,0.4969909191131592,0.4947074353694916,0.4972006380558014,0.5051085352897644,0.5012991428375244,0.4984008073806762,0.4961895942687988,0.4977264404296875,0.4996726214885711,0.4969180822372436,0.4966533780097961,0.4984130263328552,0.4955107867717743,0.50310218334198,0.500476598739624,0.4955497980117798,0.4994143545627594,0.5012775659561157,0.5019224286079407,0.4968286454677582,0.4995265901088714,0.5040659308433533,0.4975753426551819,0.5008206963539124,0.4931364059448242,0.498044341802597,0.4964154362678528,0.499819278717041,0.4980223476886749,0.5005990862846375,0.493505597114563,0.4990873038768768,0.4978975653648376,0.4939936101436615,0.500965416431427,0.4993889331817627,0.500007152557373,0.499899685382843,0.4992717504501343,0.5019917488098145,0.4994487166404724,0.496587872505188,0.4970088005065918,0.4989151060581207,0.5029973983764648,0.4997563064098358
0.4977059662342071,0.4982768595218658,0.495952695608139,0.4988881945610046,0.4990611970424652,0.5058885216712952,0.5003603100776672,0.5005514025688171,0.4986082315444946,0.4968968629837036,0.4993644654750824,0.4956896603107452,0.4974977374076843,0.4976149797439575,0.4972224235534668,0.5053154826164246,0.5001380443572998,0.4984255731105804,0.501154363155365,0.502748429775238,0.5006800293922424,0.5026866793632507,0.4995571970939636,0.50407475233078,0.4927084147930145,0.5003031492233276,0.4965174794197082,0.4990612864494324,0.4997432827949524,0.4983994960784912,0.4983609914779663,0.5006148219108582,0.4939222931861877,0.5014215707778931,0.4989732801914215,0.4974411129951477,0.4997198283672333,0.4973149299621582,0.5007112622261047,0.5000403523445129,0.4983253180980682,0.5010027885437012,0.4983971118927002,0.4964436292648315,0.4975627660751343,0.4988930225372314,0.500429630279541,0.4989473223686218
0.4997702836990356,0.4976755678653717,0.4976010620594024,0.5004991292953491,0.4930954575538635,0.5074164271354675,0.5007839798927307,0.4993271231651306,0.4988679885864258,0.4957790374755859,0.5006427764892578,0.4953550100326538,0.497889906167984,0.4983612596988678,0.4992953240871429,0.5015203356742859,0.5016924738883972,0.4974384307861328,0.5016635656356812,0.4974168837070465,0.5002498030662537,0.501197874546051,0.4972225427627563,0.5037537217140198,0.4975545108318329,0.498609721660614,0.4977627694606781,0.4984485805034637,0.5018847584724426,0.4971922934055328,0.4979034960269928,0.500430703163147,0.5003362894058228,0.5027768611907959,0.5005372166633606,0.4981265962123871,0.4998687505722046,0.4980489015579223,0.4996554553508758,0.4999589622020721,0.4968762695789337,0.5018677115440369,0.4995430707931518,0.4963650703430176,0.4933726489543915,0.4986883103847503,0.5023256540298462,0.4972666501998901
0.499858021736145,0.4993281662464142,0.4970491528511047,0.4986740946769714,0.4979074597358703,0.5049676299095154,0.4973912537097931,0.4965200126171112,0.4963280856609344,0.497813731431961,0.4991624057292938,0.5005554556846619,0.4986835420131683,0.4991626441478729,0.497646689414978,0.4984858930110931,0.5024548172950745,0.497871458530426,0.5002131462097168,0.5008518695831299,0.5034604072570801,0.500660240650177,0.4947272539138794,0.5022345185279846,0.4963559508323669,0.4993841648101806,0.4973624646663666,0.5011706948280334,0.5012295246124268,0.4969786405563354,0.4966799020767212,0.4999328553676605,0.4984924793243408,0.5030015707015991,0.4984823167324066,0.4933607280254364,0.5006343722343445,0.4978246092796325,0.5011948943138123,0.498578131198883,0.4973976016044616,0.5017590522766113,0.5007970333099365,0.4967374801635742,0.4972139894962311,0.4967254996299743,0.5008899569511414,0.4986477792263031
0.5005252361297607,0.4971274733543396,0.4976237416267395,0.4985573589801788,0.4997013211250305,0.5077626705169678,0.503248929977417,0.5013037323951721,0.4972553253173828,0.4920922219753265,0.4976824223995209,0.5026755332946777,0.5024712085723877,0.4999333620071411,0.4986485540866852,0.5020760297775269,0.5002797842025757,0.4990005791187286,0.5016681551933289,0.5007496476173401,0.5016656517982483,0.4965518414974212,0.5000644326210022,0.5023115873336792,0.497540146112442,0.4981664717197418,0.4928610622882843,0.4991971254348755,0.5019399523735046,0.4980840682983398,0.4965195953845978,0.5006569027900696,0.497922271490097,0.502217173576355,0.4942020177841186,0.4983387291431427,0.4985547363758087,0.4992263317108154,0.4977509975433349,0.5005239248275757,0.4995329976081848,0.5039002895355225,0.500438392162323,0.4922165274620056,0.4976600110530853,0.499824583530426,0.5009586215019226,0.4982328712940216
0.4995169043540954,0.4986470639705658,0.4990055859088897,0.4988322854042053,0.4975189566612243,0.5058340430259705,0.5005674362182617,0.4991936385631561,0.4989332854747772,0.4966801702976227,0.4997524917125702,0.5012336373329163,0.4998965561389923,0.5016531944274902,0.5017719864845276,0.4984120726585388,0.4992988407611847,0.4998466074466705,0.4991697371006012,0.5002778172492981,0.5004799365997314,0.5021828413009644,0.4956571161746979,0.5023922920227051,0.4971494674682617,0.4975144267082214,0.4971997141838074,0.501185953617096,0.498900294303894,0.4981604218482971,0.4975040555000305,0.4978235960006714,0.4975535571575165,0.501624584197998,0.4980359375476837,0.4985988736152649,0.4994944930076599,0.4984667897224426,0.4996477365493774,0.5018423199653625,0.4978659749031067,0.5045762658119202,0.5011390447616577,0.4968646168708801,0.4978452324867248,0.4983226954936981,0.4995087087154388,0.4982075691223144
0.498791754245758,0.4967890977859497,0.4937167763710022,0.4976139962673187,0.4969651997089386,0.503688633441925,0.5016264319419861,0.4988639056682586,0.499615341424942,0.4969556033611297,0.4940713047981262,0.5024946331977844,0.5007350444793701,0.50223708152771,0.4998736381530761,0.502400815486908,0.496778279542923,0.5029022693634033,0.499971479177475,0.500717282295227,0.500618040561676,0.5018360614776611,0.4936479330062866,0.5021228790283203,0.4967409074306488,0.4987598657608032,0.4977090060710907,0.4979265928268432,0.4992287158966064,0.4969014227390289,0.4975697994232178,0.5013233423233032,0.4982435405254364,0.5009635090827942,0.4986472427845001,0.4996456801891327,0.500015139579773,0.4984019994735718,0.5000694394111633,0.5003637671470642,0.4965159296989441,0.5028204321861267,0.4981333315372467,0.4961594939231872,0.4941989779472351,0.5001190900802612,0.500029444694519,0.4979614019393921
0.4977086186408996,0.4986449480056762,0.4960518181324005,0.5004308223724365,0.4971727132797241,0.5063318610191345,0.5024690628051758,0.4955202639102936,0.4991027414798736,0.4956342279911041,0.4978508949279785,0.5042685270309448,0.5022953152656555,0.5044370889663696,0.5008686780929565,0.5018036961555481,0.5015445947647095,0.5001328587532043,0.4985111355781555,0.5014585256576538,0.5016463398933411,0.5025779604911804,0.4969516396522522,0.504669725894928,0.4992367327213287,0.5003969073295593,0.4973900020122528,0.5014996528625488,0.4999633729457855,0.4968801438808441,0.4978970885276794,0.4995953738689422,0.4988591372966766,0.5036677122116089,0.4986077845096588,0.4972703456878662,0.5023401379585266,0.4979782402515411,0.4942361414432525,0.5014070272445679,0.499283492565155,0.5009024143218994,0.5007497668266296,0.4980936348438263,0.4983081221580505,0.4972663521766662,0.4987174272537231,0.4980505704879761
0.4984259605407715,0.4969512820243835,0.4968654215335846,0.4985013604164123,0.4974595904350281,0.5054880976676941,0.4992242157459259,0.5013206601142883,0.5010760426521301,0.4959504306316376,0.4950087070465088,0.5047647953033447,0.5024805665016174,0.5042822957038879,0.4965945482254028,0.5000886917114258,0.5003060102462769,0.5016638040542603,0.4989414811134338,0.5015438795089722,0.5033009648323059,0.5009313821792603,0.4938813149929046,0.5048913359642029,0.4962205290794372,0.4969623684883117,0.496389091014862,0.5029582977294922,0.5001730918884277,0.4981217980384826,0.4925705194473266,0.5023281574249268,0.4966905117034912,0.5026108026504517,0.498747706413269,0.4973904490470886,0.502328097820282,0.4969799518585205,0.500441312789917,0.5019707679748535,0.4970032274723053,0.5023540258407593,0.5007199048995972,0.4967843294143677,0.4978322088718414,0.5005350112915039,0.4991204440593719,0.4975157678127289
0.5003949999809265,0.4984867870807647,0.4931232929229736,0.4932634234428406,0.4943387806415558,0.5061580538749695,0.5000321865081787,0.4989268779754638,0.5034972429275513,0.4971040189266205,0.4987041056156158,0.5019752383232117,0.5022468566894531,0.5024622082710266,0.5006051063537598,0.5010699033737183,0.5013160705566406,0.5029793977737427,0.4954104423522949,0.5009271502494812,0.5020819306373596,0.4963763654232025,0.4932717084884643,0.5028306841850281,0.4965766668319702,0.4948762655258178,0.4975019097328186,0.5002214908599854,0.4998284876346588,0.4974493980407715,0.4967191219329834,0.499117374420166,0.4973403513431549,0.502311646938324,0.4996324777603149,0.4972987473011017,0.5018601417541504,0.4970839917659759,0.4989777505397796,0.5008758306503296,0.4996176958084106,0.5036010146141052,0.5003759860992432,0.4969881474971771,0.4966273605823517,0.4985921680927276,0.4982618391513824,0.4979119002819061
0.4977933466434479,0.4998252689838409,0.4990145862102508,0.4971076846122741,0.498528242111206,0.5057352185249329,0.4990576207637787,0.4998136162757873,0.5038362741470337,0.4958974421024322,0.4984294772148132,0.5030015110969543,0.5041030049324036,0.5033910274505615,0.5010324120521545,0.4997175633907318,0.5000078678131104,0.5043589472770691,0.4979646205902099,0.5012648105621338,0.5007246136665344,0.5013984441757202,0.4983973205089569,0.5029856562614441,0.4975294470787048,0.4948106110095978,0.4959028661251068,0.4997105300426483,0.501419723033905,0.4993853569030761,0.4962154030799866,0.4986870884895324,0.497645229101181,0.5022361278533936,0.4983257055282593,0.4983030259609222,0.5004384517669678,0.4970512092113495,0.4993745982646942,0.5013558268547058,0.4985547661781311,0.502803385257721,0.5000280737876892,0.4954740107059479,0.4977200627326965,0.4977861642837524,0.4946748912334442,0.4977301657199859
0.49866783618927,0.4994880855083465,0.4974069595336914,0.4977824985980987,0.4934493005275726,0.5068256855010986,0.4980023503303528,0.4986101388931274,0.5021746754646301,0.4959144592285156,0.4990092515945434,0.5011637806892395,0.5019561648368835,0.5034533143043518,0.5008583664894104,0.5010222792625427,0.498146653175354,0.499154657125473,0.4991064369678497,0.4991064369678497,0.5002813935279846,0.5001294612884521,0.4982892870903015,0.5027468800544739,0.492658406496048,0.4972493648529053,0.492557555437088,0.5009622573852539,0.4994522929191589,0.4969679415225982,0.4978158473968506,0.498719722032547,0.4993830919265747,0.5016446709632874,0.4986806809902191,0.4978111386299133,0.500497043132782,0.497214138507843,0.4976271688938141,0.4955853819847107,0.4985256195068359,0.5024734735488892,0.5009813904762268,0.495979368686676,0.4983412623405456,0.4991113543510437,0.4967238306999206,0.4981995522975921
0.4976256787776947,0.4980154633522033,0.4955508112907409,0.4978155493736267,0.4963249862194061,0.5037419199943542,0.4987225532531738,0.4991709291934967,0.5018981695175171,0.4965754151344299,0.4995719492435455,0.497475802898407,0.5011984705924988,0.5026499629020691,0.5032378435134888,0.4998210072517395,0.5012123584747314,0.5029866099357605,0.4983171820640564,0.4954482316970825,0.5009656548500061,0.5017004013061523,0.4966398477554321,0.5012270212173462,0.4975204467773437,0.4979859888553619,0.4965020418167114,0.5024556517601013,0.495570421218872,0.4985196888446808,0.4965449869632721,0.5001773834228516,0.4979698956012726,0.5023280382156372,0.4941194355487823,0.4988088309764862,0.5016404390335083,0.4985838234424591,0.4984882473945617,0.5008336901664734,0.4979324638843536,0.503643810749054,0.5024405121803284,0.4970287680625915,0.4966109991073608,0.5008221864700317,0.4991284012794494,0.4970161914825439
0.4999399781227112,0.4990779757499695,0.4972210824489593,0.4933841228485107,0.4977868199348449,0.5034580826759338,0.4980286657810211,0.4987252354621887,0.5039553642272949,0.4969038069248199,0.4973191320896148,0.5023280382156372,0.5018708109855652,0.5014055371284485,0.5014746189117432,0.4968408346176147,0.497770756483078,0.503864049911499,0.4946412742137909,0.4975429177284241,0.4996417462825775,0.4984665215015411,0.4970265626907348,0.5022560954093933,0.4984900057315826,0.4987286925315857,0.4972696304321289,0.5018708109855652,0.4998392462730407,0.4986788928508758,0.4978111386299133,0.4982061088085174,0.4965671300888061,0.5024176239967346,0.4975323379039764,0.4980363547801971,0.5005659461021423,0.4983137249946594,0.4974611699581146,0.4989877641201019,0.4986229836940765,0.5033850073814392,0.5004781484603882,0.4955461621284485,0.4974538385868072,0.4981221556663513,0.5009276866912842,0.4931707382202148
0.4975413680076599,0.4993764758110046,0.4970118403434753,0.4977402985095978,0.4975065886974334,0.5039339065551758,0.4964978396892547,0.4989003241062164,0.5019599199295044,0.4957629442214966,0.4935857653617859,0.5015125274658203,0.4998424649238586,0.5023348927497864,0.5028516054153442,0.4996732771396637,0.4998011589050293,0.5055375099182129,0.4995839595794678,0.4969084560871124,0.5006071329116821,0.4944042861461639,0.4977278411388397,0.5030100345611572,0.4971832931041717,0.4983936548233032,0.4926539063453674,0.500390350818634,0.4993680715560913,0.4975389838218689,0.4990927875041961,0.4996297359466553,0.4984749555587768,0.5015440583229065,0.4975164532661438,0.4963659942150116,0.4999990165233612,0.4980587959289551,0.4990867078304291,0.4964188039302826,0.499512106180191,0.5032164454460144,0.5001475811004639,0.495613157749176,0.4967571198940277,0.494871973991394,0.4963788092136383,0.4983471035957336
0.4962001442909241,0.4974429011344909,0.4985199570655823,0.4987961649894714,0.4993959665298462,0.5036619901657104,0.4999794363975525,0.4983421266078949,0.5019803047180176,0.495402455329895,0.5001175403594971,0.5021509528160095,0.5002609491348267,0.5023621916770935,0.4999504089355469,0.4996246993541717,0.4977757930755615,0.5044032335281372,0.4985844790935516,0.4996193647384643,0.5010324716567993,0.4982867240905761,0.4970138370990753,0.5022596716880798,0.4971268475055694,0.4963893890380859,0.4965057969093323,0.4992494881153106,0.49969682097435,0.4993312060832977,0.4976859092712402,0.4995502829551697,0.4998114109039306,0.5009650588035583,0.498076319694519,0.4965768456459045,0.5002382397651672,0.4981897473335266,0.4948292672634125,0.4991893172264099,0.4965722858905792,0.5012271404266357,0.5021029114723206,0.4952864050865173,0.4974357187747955,0.498783528804779,0.4945521950721741,0.4982405602931976
0.4997718036174774,0.4974429905414581,0.4972807168960571,0.4928681552410126,0.4984537065029144,0.5020384192466736,0.4985999166965484,0.4968127906322479,0.5026512145996094,0.4953229129314422,0.4935431182384491,0.5010809302330017,0.5001040697097778,0.500325083732605,0.5011688470840454,0.5021945238113403,0.4966196715831756,0.5037873983383179,0.4969653785228729,0.5012197494506836,0.500505268573761,0.4987629055976867,0.4973272979259491,0.5023528933525085,0.4978451430797577,0.4976063966751098,0.4973061084747314,0.4994744658470154,0.4981330931186676,0.4995843768119812,0.4974887371063232,0.4970229566097259,0.4975723922252655,0.501609206199646,0.4987411797046661,0.496930718421936,0.4985993802547455,0.4980609714984894,0.4986469447612762,0.4962769746780395,0.4964811205863952,0.5004927515983582,0.4999754130840301,0.4926977753639221,0.4980211853981018,0.4980281293392181,0.4991644918918609,0.4993752241134643
0.4977207779884338,0.4952049553394317,0.4962391555309295,0.4984290599822998,0.4941774606704712,0.5024768710136414,0.4984540939331054,0.498170256614685,0.5025150179862976,0.4953119158744812,0.498808741569519,0.5018622279167175,0.500572681427002,0.5007243156433105,0.5008777379989624,0.5022092461585999,0.4976910054683685,0.5053077936172485,0.4976912140846252,0.5000936388969421,0.50082927942276,0.4982647895812988,0.4930689930915832,0.5020735263824463,0.4990542232990265,0.4984768331050873,0.4974000453948974,0.4991199970245361,0.4988332092761993,0.4968518316745758,0.4970860779285431,0.4978630542755127,0.4926163256168365,0.5011937022209167,0.4984988272190094,0.4982142448425293,0.4982565641403198,0.4984496831893921,0.4965706467628479,0.4984105825424194,0.4974383115768432,0.5015823841094971,0.4991799592971802,0.4953524172306061,0.499494343996048,0.4975409507751465,0.4989957213401794,0.4987642467021942
0.4981434345245361,0.4919643700122833,0.4931754171848297,0.4985086619853973,0.49967822432518,0.5006816983222961,0.4977703988552093,0.4995768368244171,0.5022985339164734,0.4973589181900024,0.4980528950691223,0.5008496046066284,0.502655029296875,0.5016477108001709,0.4990715384483337,0.4990884065628052,0.4977355003356933,0.5027157664299011,0.5001469254493713,0.4984615743160248,0.4994113445281982,0.4997128546237945,0.4964456558227539,0.500125527381897,0.4974988102912903,0.4971839487552643,0.4979249835014343,0.499056339263916,0.5003126263618469,0.4994666278362274,0.4973910450935364,0.4984001219272613,0.4995777010917663,0.4999110996723175,0.4993040561676025,0.497605562210083,0.4993213415145874,0.4978368580341339,0.4982320368289947,0.4943147301673889,0.4964970350265503,0.5009878873825073,0.4986855089664459,0.4977968037128448,0.4981323480606079,0.4977418482303619,0.4992151856422424,0.493072360754013
0.4979406595230102,0.4963472783565521,0.5001676678657532,0.498824268579483,0.4998414218425751,0.5003738403320312,0.4980677962303161,0.4996223151683807,0.5000222325325012,0.4941558241844177,0.4975261092185974,0.4999488294124603,0.4987307786941528,0.5015274286270142,0.4996256828308105,0.5001654624938965,0.4971863925457001,0.4988171458244324,0.4988846778869629,0.4986180961132049,0.4991311728954315,0.4946115016937256,0.4961997270584106,0.4998199641704559,0.4977731704711914,0.4963164031505584,0.4987107217311859,0.499007374048233,0.4986829757690429,0.4990465641021728,0.4937208890914917,0.4942237734794616,0.497142493724823,0.5006095767021179,0.4982579946517944,0.500604510307312,0.4976833164691925,0.4964845478534698,0.4972279965877533,0.4998664557933807,0.4967308640480041,0.5017656683921814,0.5012073516845703,0.4953605532646179,0.4987163245677948,0.4981258511543274,0.4979999959468841,0.4987923800945282
0.4976851046085357,0.4919870793819427,0.4960287511348724,0.4951618611812591,0.4996078014373779,0.5029786825180054,0.5000887513160706,0.497382253408432,0.5015172958374023,0.4979386329650879,0.4977770149707794,0.5009279251098633,0.4952446520328522,0.5001038312911987,0.499555379152298,0.4947527945041656,0.4974840879440307,0.5029419660568237,0.4970120191574096,0.498691976070404,0.4981845021247864,0.4972654581069946,0.4992539584636688,0.5002666115760803,0.4979445934295654,0.4973384141921997,0.498370498418808,0.4948476254940033,0.4980040192604065,0.4965645968914032,0.4964447319507599,0.4990871846675873,0.4968031048774719,0.4997153580188751,0.4987542033195495,0.499313622713089,0.4975762069225311,0.4978415071964264,0.5003834366798401,0.498423159122467,0.496961236000061,0.5004851818084717,0.4994380474090576,0.493844598531723,0.4978510439395904,0.498807281255722,0.499833196401596,0.4976038932800293
0.4982714354991913,0.4963124096393585,0.5005987882614136,0.4975385665893554,0.5017995834350586,0.5023298859596252,0.4968001246452331,0.4976901710033417,0.501338541507721,0.4934742748737335,0.4977591335773468,0.5014340877532959,0.4998822510242462,0.4963283836841583,0.5010177493095398,0.4982634484767914,0.4979860186576843,0.5015336871147156,0.4976682364940643,0.4999211132526397,0.4999973773956299,0.4985839426517486,0.496606707572937,0.4995134770870209,0.5005342960357666,0.4971835315227508,0.4922624230384826,0.4962025284767151,0.4998458921909332,0.4960997998714447,0.4974549412727356,0.4951978325843811,0.4975442886352539,0.4993110299110412,0.4980101883411407,0.4996728003025055,0.5003622174263,0.4986108541488647,0.4998951554298401,0.4978496134281158,0.4966551959514618,0.4992240667343139,0.4979573488235473,0.4967724680900574,0.5013736486434937,0.4937438070774078,0.4988558888435364,0.4973624050617218
0.4991728961467743,0.496496707201004,0.5023358464241028,0.4954788088798523,0.5006839036941528,0.500628650188446,0.4937717020511627,0.4993110001087188,0.5011757016181946,0.4960922598838806,0.4971731901168823,0.5018436908721924,0.4988151788711548,0.5016543865203857,0.4984880983829498,0.4994940757751465,0.4995467960834503,0.4991379380226135,0.4976396262645721,0.500895082950592,0.4981205761432647,0.498272180557251,0.4984449744224548,0.5004911422729492,0.4977319538593292,0.4980673789978027,0.4973353445529938,0.5011672377586365,0.5006914138793945,0.4982028305530548,0.4975729286670685,0.4976044297218323,0.4940667450428009,0.49909308552742,0.4978770911693573,0.5004920959472656,0.4976743459701538,0.497852623462677,0.4974508881568908,0.4979995787143707,0.4927183985710144,0.5018172860145569,0.4999768733978271,0.49607053399086,0.4958869218826294,0.4981009662151336,0.4938338994979858,0.4999189376831054
0.4989697337150574,0.4963031411170959,0.50345778465271,0.4967429637908935,0.497827798128128,0.4995846152305603,0.500663697719574,0.5003963708877563,0.4956854879856109,0.4976683259010315,0.4968051016330719,0.5001126527786255,0.498710036277771,0.4998031556606293,0.501039981842041,0.4984020292758941,0.4983227550983429,0.5027168393135071,0.4997985064983368,0.4981083571910858,0.4995204508304596,0.5004284381866455,0.4978165924549103,0.5007221698760986,0.4988224506378174,0.4956325888633728,0.4976337850093841,0.5003571510314941,0.4983926117420196,0.4975669682025909,0.4925550818443298,0.4947789311408996,0.498694509267807,0.5003668665885925,0.4996408224105835,0.5016239285469055,0.4934849441051483,0.4985479116439819,0.4971890449523926,0.4987127482891083,0.4965092241764068,0.5018342733383179,0.5005850195884705,0.4972316026687622,0.500219464302063,0.4946528375148773,0.4997062087059021,0.4976564645767212
0.4974488317966461,0.4923781752586365,0.497093141078949,0.4969673454761505,0.500536322593689,0.5027774572372437,0.4979186058044433,0.4988826811313629,0.501162052154541,0.4992566704750061,0.4977278411388397,0.4991553425788879,0.4981501996517181,0.5000224709510803,0.4982832968235016,0.5000969767570496,0.4989997744560241,0.4986622631549835,0.499937891960144,0.4988106489181518,0.5000270009040833,0.4985551536083221,0.4978493154048919,0.4994944930076599,0.4996813833713531,0.4947721660137176,0.4993270933628082,0.5008465051651001,0.4997647106647491,0.495899349451065,0.4991010129451751,0.4981859922409057,0.4978711307048797,0.4991587102413177,0.494242250919342,0.5008053779602051,0.5002328753471375,0.4992125928401947,0.4973151087760925,0.4977344870567322,0.4967267513275146,0.5001112818717957,0.4941632747650146,0.4961485564708709,0.5008904933929443,0.4988104104995727,0.4935087859630584,0.4995411038398742
0.4953354597091675,0.4974932074546814,0.4970533549785614,0.4976255595684051,0.5031346678733826,0.495989978313446,0.4983668923377991,0.4987669289112091,0.5005978345870972,0.4967532753944397,0.4961198270320892,0.5015829205513,0.5004161596298218,0.5009873509407043,0.4990314841270447,0.5008888840675354,0.4974518418312073,0.5030851364135742,0.493829995393753,0.497895747423172,0.4971015751361847,0.4973457753658294,0.4927508533000946,0.5008031725883484,0.4995946884155273,0.4987382888793945,0.4967265427112579,0.4978861808776855,0.4945038557052612,0.4960648119449615,0.4959595501422882,0.4979059398174286,0.4968611001968384,0.5001319050788879,0.4971243143081665,0.5017598271369934,0.49775031208992,0.4964994490146637,0.499226301908493,0.4978755116462707,0.4927326142787933,0.5014955401420593,0.4973700940608978,0.4974982440471649,0.501790463924408,0.4986139833927154,0.4985135793685913,0.4986251890659332
0.4965092539787292,0.4998778998851776,0.5029464364051819,0.500176727771759,0.5025154948234558,0.5026295185089111,0.4983964562416076,0.4971092343330383,0.501566469669342,0.500554084777832,0.4930183887481689,0.5011609792709351,0.5001003742218018,0.4985535442829132,0.4980590045452118,0.4975739121437073,0.4974106848239898,0.501922070980072,0.4973886907100677,0.4990134239196777,0.4996248185634613,0.4987103939056396,0.4989800751209259,0.4999231398105621,0.502226710319519,0.4969955682754516,0.4993842840194702,0.4943295121192932,0.4939203858375549,0.4960906207561493,0.4972721040248871,0.49843430519104,0.5001785755157471,0.4948803186416626,0.4934210479259491,0.5030258893966675,0.4982546865940094,0.4978496730327606,0.4941531121730804,0.4986662566661834,0.4986452460289001,0.5006314516067505,0.4986312091350555,0.4975714385509491,0.5030094385147095,0.5004673004150391,0.4940881729125976,0.5010877847671509
0.4961016774177551,0.4995735883712768,0.4973021149635315,0.4992112815380096,0.5009216666221619,0.4997649192810058,0.4985505640506744,0.4985130131244659,0.5008244514465332,0.4984623491764068,0.498266339302063,0.5001534819602966,0.4994421601295471,0.4999761581420898,0.4979528784751892,0.4984347224235534,0.4971762895584106,0.4985446333885193,0.4967310726642608,0.4985029399394989,0.4954002797603607,0.4976166784763336,0.4957731068134308,0.5001736879348755,0.501432478427887,0.4943881928920746,0.4997987151145935,0.4990676045417785,0.497476726770401,0.4952616095542907,0.4953774213790893,0.4935605823993683,0.4979064166545868,0.5010086894035339,0.4976854622364044,0.5035965442657471,0.497587114572525,0.4977471828460693,0.4970493614673614,0.4971556663513183,0.4988612234592438,0.4994907677173614,0.4936603605747223,0.4982906281948089,0.5021549463272095,0.4988318681716919,0.4974114000797272,0.4961890280246734
0.4967603087425232,0.4957452714443207,0.5005337595939636,0.5001559257507324,0.5021288990974426,0.5002899765968323,0.5002366304397583,0.4990924596786499,0.496494710445404,0.4996903240680694,0.4976428151130676,0.4996433556079864,0.4989959001541137,0.4981050789356231,0.4988580048084259,0.4936210513114929,0.497648686170578,0.5023083090782166,0.4969716370105743,0.498291552066803,0.4992267489433288,0.4983211755752563,0.4970360398292541,0.4984942376613617,0.5002773404121399,0.4995995163917541,0.5004188418388367,0.4983101785182953,0.4972056448459625,0.4969129860401153,0.4976344704627991,0.5005069971084595,0.4994590878486633,0.501196026802063,0.4994812309741974,0.5010926127433777,0.4976029992103576,0.4984782040119171,0.4981331825256347,0.4989414811134338,0.4997340738773346,0.5021073222160339,0.4987556934356689,0.4996289908885956,0.4975603818893432,0.4974797368049621,0.4976606369018554,0.5012716054916382
0.4969865083694458,0.4995568990707397,0.5016846656799316,0.5013275146484375,0.5036514401435852,0.4975160956382751,0.4974939823150635,0.4984085857868194,0.5001580715179443,0.5002551674842834,0.4956442415714264,0.5000121593475342,0.5007320642471313,0.4964944124221802,0.4976352751255035,0.4968954026699066,0.49849733710289,0.495459645986557,0.4977571368217468,0.4953765571117401,0.4983834028244018,0.4974867403507232,0.4978837072849273,0.5001770853996277,0.5004063844680786,0.5002703070640564,0.5008431077003479,0.4991062879562378,0.4973731935024261,0.4971786141395569,0.4982992708683014,0.4987515211105346,0.4996215999126434,0.4988523423671722,0.4979028105735779,0.502589225769043,0.4983288645744324,0.4975217580795288,0.497098445892334,0.4988462030887604,0.499297022819519,0.4989086091518402,0.4977314174175262,0.5004299283027649,0.4992114305496216,0.4974623024463653,0.4982683360576629,0.50039142370224
0.4955320656299591,0.5026289224624634,0.5019645094871521,0.5007442831993103,0.497076004743576,0.4998218119144439,0.4973224699497223,0.4980412423610687,0.5001891851425171,0.5020126104354858,0.4964363574981689,0.5005326867103577,0.4980478584766388,0.4950565993785858,0.4971434772014618,0.4984835088253021,0.4969099164009094,0.499231606721878,0.4944027066230774,0.496606707572937,0.497817188501358,0.4969561696052551,0.4990073144435882,0.4989937245845794,0.4997176826000213,0.5008997917175293,0.496461808681488,0.4992755353450775,0.4993028044700622,0.4965773820877075,0.4973926544189453,0.4971303045749664,0.4957566857337951,0.5016634464263916,0.4973258972167969,0.5030561089515686,0.4987784922122955,0.4955655336380005,0.492951363325119,0.4980542063713074,0.4995437562465668,0.5007292032241821,0.4982757568359375,0.5006997585296631,0.5013380646705627,0.499491274356842,0.4982208907604217,0.5003679394721985
0.4947612285614013,0.5022457838058472,0.5021159648895264,0.5025204420089722,0.5014867186546326,0.4993326365947723,0.4974920451641083,0.4980098605155945,0.4991205334663391,0.5019145011901855,0.4977745413780212,0.5001398921012878,0.5003659725189209,0.4985860586166382,0.4979714155197143,0.494331806898117,0.4970776438713074,0.5010116696357727,0.4980666935443878,0.4998254776000976,0.4995284378528595,0.4938738942146301,0.4964515566825866,0.5009540915489197,0.4991285502910614,0.4958244860172272,0.5007069706916809,0.4990215003490448,0.49871426820755,0.495555430650711,0.4994034171104431,0.4970220029354095,0.4996764361858368,0.4998179972171783,0.498540312051773,0.4981738924980163,0.4934181571006775,0.4923436939716339,0.4968810081481933,0.499441385269165,0.4996550679206848,0.5006577372550964,0.4976839423179626,0.5005494952201843,0.4997522830963135,0.4986071586608886,0.4964451491832733,0.5026089549064636
0.4965123832225799,0.5029826164245605,0.4997466206550598,0.5035427808761597,0.5019396543502808,0.4993844330310821,0.4927600026130676,0.498991847038269,0.4984006881713867,0.4991008937358856,0.4954043626785278,0.5005296468734741,0.4985187947750091,0.4995943903923034,0.4986633360385895,0.4997491836547851,0.4967534244060516,0.5008496642112732,0.4984548687934875,0.4968553483486175,0.498398095369339,0.4984971880912781,0.4976598918437958,0.5000702142715454,0.4999490976333618,0.5004278421401978,0.5002412796020508,0.4982199668884277,0.4978679716587066,0.4976904094219208,0.4948624968528747,0.4991518259048462,0.5010534524917603,0.5010791420936584,0.4993323385715484,0.5005560517311096,0.5000180006027222,0.4989340305328369,0.497166633605957,0.4983562231063843,0.5001571774482727,0.5003045201301575,0.4986105561256408,0.502627432346344,0.4990397989749908,0.4977745413780212,0.4982085525989532,0.5019662976264954
0.4971609711647033,0.5039997696876526,0.5000180006027222,0.5012148022651672,0.4994358420372009,0.4991276562213897,0.4960199296474457,0.493428498506546,0.4980089664459228,0.4990111887454986,0.4969775378704071,0.4997777044773102,0.4984513521194458,0.499782919883728,0.4976171553134918,0.4963355958461761,0.4996443092823028,0.5009496808052063,0.4967177212238312,0.4986469149589538,0.4976463913917541,0.4956812858581543,0.5004329085350037,0.4993358254432678,0.4998106062412262,0.5017408132553101,0.5000211596488953,0.4973985254764557,0.497551292181015,0.4919721782207489,0.5002187490463257,0.4992788434028625,0.5001403093338013,0.4948230981826782,0.4964950680732727,0.4967970848083496,0.4999975860118866,0.4959318935871124,0.496753841638565,0.4979580342769623,0.4996478259563446,0.5015475749969482,0.4977099597454071,0.5008049011230469,0.4997319877147674,0.4996210932731628,0.4980424344539642,0.4989319443702698
0.4960909485816955,0.5016084909439087,0.5016310214996338,0.5029487609863281,0.5005084872245789,0.4941773414611816,0.4966329038143158,0.4925540387630462,0.4983834624290466,0.4989067018032074,0.4975778758525848,0.4996165931224823,0.4976264238357544,0.5005112290382385,0.500132143497467,0.4965696334838867,0.4976445138454437,0.494813859462738,0.4964838325977325,0.4978837966918945,0.5002282857894897,0.4973926842212677,0.4942295849323272,0.4991195499897003,0.5001910924911499,0.5018572807312012,0.4979313015937805,0.4981473088264465,0.497690737247467,0.494487851858139,0.4999344944953918,0.4973548650741577,0.4965184330940246,0.498191088438034,0.4992729723453522,0.4964090287685394,0.4961863458156585,0.4989888072013855,0.4977997243404388,0.4976780414581299,0.5017944574356079,0.4990701079368591,0.4982234239578247,0.4963755309581756,0.4989321529865265,0.4989062249660492,0.4981472790241241,0.495649129152298
0.4973334670066833,0.5039863586425781,0.4995498061180115,0.5027824640274048,0.4959316551685333,0.497670829296112,0.4972141981124878,0.4967874586582184,0.4987240135669708,0.498805433511734,0.4964219033718109,0.4983560740947723,0.5003355145454407,0.4979656040668487,0.5001516938209534,0.4972262978553772,0.4967296421527862,0.5007658004760742,0.4994634687900543,0.4966040551662445,0.4984149932861328,0.4937085509300232,0.4993489980697632,0.5000983476638794,0.4989728033542633,0.4991368949413299,0.5004589557647705,0.4971520602703094,0.4965637624263763,0.4953375458717346,0.5015775561332703,0.4986202120780945,0.5030306577682495,0.4943649768829345,0.4965839982032776,0.5014397501945496,0.4970124065876007,0.4991224408149719,0.4933817386627197,0.4987295567989349,0.5013561248779297,0.4952084422111511,0.498703122138977,0.5008985996246338,0.4993571043014526,0.4988984167575836,0.4931990802288055,0.499850332736969
0.4996249675750732,0.5015656352043152,0.5020419359207153,0.4988559782505035,0.5003629326820374,0.4966185092926025,0.4927448034286499,0.4980629384517669,0.4995598793029785,0.499364286661148,0.492731362581253,0.4984750151634216,0.5000543594360352,0.499037504196167,0.4983895421028137,0.4974265396595001,0.4974206089973449,0.4997453689575195,0.4990399181842804,0.4954985678195953,0.4981861114501953,0.4975107908248901,0.5023265480995178,0.4998202621936798,0.5003404021263123,0.5021647810935974,0.5026198029518127,0.4970510005950928,0.4980489015579223,0.4918752312660217,0.5000817775726318,0.4979694783687591,0.5009667277336121,0.5008272528648376,0.4970376789569855,0.5002142786979675,0.4972070753574371,0.492387443780899,0.4971092045307159,0.4979377686977386,0.5002815127372742,0.4996959865093231,0.4966734647750854,0.50090491771698,0.4944891333580017,0.5006718635559082,0.4977606534957886,0.5006809234619141
0.5013449788093567,0.5000448822975159,0.4999537467956543,0.5042411088943481,0.4997285604476928,0.4981291890144348,0.4973610937595367,0.4961278438568115,0.4941089749336242,0.4955239593982696,0.4971175491809845,0.4988545775413513,0.4984521865844726,0.4978933334350586,0.4978124499320984,0.4953443706035614,0.4967353343963623,0.4987736046314239,0.4973131418228149,0.4966450035572052,0.496849775314331,0.4976497888565063,0.5010061264038086,0.4976358711719513,0.4994000792503357,0.5004004240036011,0.499486893415451,0.4984299838542938,0.499718964099884,0.4977977871894836,0.5006445050239563,0.4969699084758758,0.4966998696327209,0.499980479478836,0.4963374733924866,0.4985003471374511,0.4975237846374511,0.4967531859874725,0.497681200504303,0.498087465763092,0.5003238916397095,0.5016526579856873,0.4987111389636993,0.5005205869674683,0.5011864304542542,0.5006027817726135,0.4983587265014648,0.5007356405258179
0.5007988214492798,0.5023751854896545,0.4988332390785217,0.4999852776527405,0.4999322593212127,0.4982994198799133,0.4981123507022857,0.4973700940608978,0.4937361180782318,0.498707115650177,0.4977231621742248,0.5002686381340027,0.4979743957519531,0.4976583421230316,0.4987196028232574,0.4947087168693542,0.4962292015552521,0.4982587099075317,0.4966166317462921,0.498352974653244,0.4964068233966827,0.4986820518970489,0.5011852979660034,0.5006523132324219,0.5014777779579163,0.4987547099590301,0.4984822571277618,0.4993778467178345,0.496810644865036,0.4981639385223388,0.5013094544410706,0.49888876080513,0.5034136772155762,0.499693363904953,0.497482419013977,0.4998734891414642,0.4938143193721771,0.4973257780075073,0.4955610036849975,0.4974150061607361,0.4999395310878753,0.4995575547218323,0.4974151253700256,0.5004348158836365,0.5005177855491638,0.4991587400436401,0.4947202503681183,0.499825119972229
0.5009945631027222,0.5004038214683533,0.4987140297889709,0.5006715059280396,0.4986264109611511,0.4982162714004516,0.4964296817779541,0.4923271238803863,0.4994977116584778,0.4980675280094147,0.4985368251800537,0.4987486898899078,0.4981646835803985,0.5008816123008728,0.498147964477539,0.4972172677516937,0.4983695149421692,0.4990292489528656,0.4966162145137787,0.4985442161560058,0.4986137151718139,0.4989213347434997,0.5017522573471069,0.4991683661937713,0.4987704157829284,0.5018966794013977,0.501451849937439,0.4980647563934326,0.4963409602642059,0.4958425164222717,0.50197833776474,0.4964952766895294,0.5013940930366516,0.4981005787849426,0.496403306722641,0.5018160939216614,0.4970619082450866,0.4930319488048553,0.497740238904953,0.4975886344909668,0.5025882720947266,0.4992835819721222,0.4992444813251495,0.5004389882087708,0.499256819486618,0.4961127936840057,0.4982905983924866,0.4987907707691192
0.5028658509254456,0.5013884902000427,0.5008189082145691,0.5022405982017517,0.4996672868728637,0.4977031946182251,0.4963661730289459,0.497494101524353,0.4937658011913299,0.4993555545806885,0.500648021697998,0.4980080425739288,0.4969514608383178,0.4988959431648254,0.4977636933326721,0.4968654215335846,0.4969973862171173,0.5007606148719788,0.4972953498363495,0.493058979511261,0.4938244223594665,0.4957174658775329,0.5005531907081604,0.4997846782207489,0.4978212714195251,0.5005261301994324,0.499790608882904,0.4940086007118225,0.4968262314796448,0.4984629154205322,0.501166820526123,0.4970431327819824,0.4961355328559875,0.5009617209434509,0.4983380436897278,0.4999309778213501,0.4995537102222442,0.4977385401725769,0.4976911544799804,0.4981045722961426,0.5018791556358337,0.5000816583633423,0.4981183409690857,0.4996514022350311,0.4977790415287018,0.5001596212387085,0.4998810589313507,0.5007040500640869
0.5051549077033997,0.4998622536659241,0.4978742301464081,0.5016413331031799,0.5006890296936035,0.4973878860473633,0.4970701038837433,0.4967384040355682,0.4975467920303345,0.4971618354320526,0.4999192953109741,0.4965131282806396,0.4973167479038238,0.4990623891353607,0.4964621067047119,0.4992092549800873,0.4983331859111786,0.4956307113170624,0.4964489340782165,0.4968433082103729,0.4988945424556732,0.496625006198883,0.5024197101593018,0.4993193447589874,0.499424010515213,0.500504732131958,0.5012355446815491,0.4978296756744385,0.4978079795837402,0.4962885081768036,0.5025540590286255,0.4992329478263855,0.5023864507675171,0.4940992295742035,0.4962896704673767,0.502062976360321,0.4966057538986206,0.4977079629898071,0.4966748356819153,0.4985520243644714,0.4990977048873901,0.4993689656257629,0.4978110492229461,0.4988782107830047,0.4986014068126678,0.5003173351287842,0.4979475736618042,0.5006757974624634
0.4982190430164337,0.5026588439941406,0.4984021484851837,0.5014578700065613,0.4990574419498443,0.4960582554340362,0.4975329935550689,0.4976135492324829,0.4952539205551147,0.4992024302482605,0.5001861453056335,0.4936719834804535,0.4965018033981323,0.4975947737693786,0.4993736445903778,0.4983672797679901,0.4925767779350281,0.4984097182750702,0.4974819719791412,0.496342658996582,0.4966965019702911,0.4973620474338531,0.5024523138999939,0.4985357820987701,0.4977015554904938,0.502199113368988,0.500131368637085,0.496517926454544,0.4970530569553375,0.4979205429553985,0.5015585422515869,0.4981419444084167,0.4993059337139129,0.4984305500984192,0.4932198226451874,0.499139130115509,0.4992501735687256,0.4976254105567932,0.4978050887584686,0.4979585111141205,0.4998952746391296,0.4990715682506561,0.4998860657215118,0.4999672770500183,0.5000799298286438,0.5011075139045715,0.4975880682468414,0.5012961626052856
0.5026582479476929,0.4992128610610962,0.4989615678787231,0.4997487664222717,0.5001235604286194,0.4985260367393493,0.4966301918029785,0.4983240067958832,0.4979891777038574,0.4986060559749603,0.5000072717666626,0.4975413382053375,0.4976550340652466,0.4971408247947693,0.4967153072357178,0.5007650852203369,0.4958380162715912,0.4939800500869751,0.4931323528289795,0.495981752872467,0.4973402321338653,0.4930770993232727,0.500129222869873,0.4970270991325378,0.4987404644489288,0.4960254430770874,0.4949806332588196,0.4981525540351867,0.4967972636222839,0.4972941875457763,0.496397465467453,0.4985171854496002,0.4990996122360229,0.4991798400878906,0.4927578568458557,0.500400185585022,0.4976823627948761,0.5000882148742676,0.4993862211704254,0.4989653527736664,0.5021858811378479,0.4981662333011627,0.4983167946338653,0.4990617632865906,0.4978685975074768,0.5011957883834839,0.4981888830661773,0.5013904571533203
0.502391517162323,0.5016615986824036,0.497248500585556,0.4996590614318847,0.4994005858898163,0.4950232803821563,0.4960174560546875,0.4982261955738067,0.4991534352302551,0.4970026910305023,0.5042615532875061,0.4981764554977417,0.4997707605361938,0.4971347749233246,0.4977057576179504,0.498369425535202,0.4974325895309448,0.4967098236083984,0.495331346988678,0.4973184764385223,0.4931698143482208,0.4958731830120086,0.5010782480239868,0.4981472492218017,0.4977318942546844,0.5012613534927368,0.5007975101470947,0.4972199201583862,0.4959507882595062,0.4945051074028015,0.4996897578239441,0.4967778623104095,0.5006296634674072,0.4985660314559936,0.4965060353279114,0.5001763701438904,0.4967167675495147,0.4968023598194122,0.4974828958511352,0.4973736703395843,0.5008630752563477,0.4996725618839264,0.498816043138504,0.4963843524456024,0.4991223812103271,0.5024241209030151,0.4980420768260956,0.498956024646759
0.5043448209762573,0.5002032518386841,0.4994622468948364,0.4957125186920166,0.4986351728439331,0.4949568510055542,0.4962672889232635,0.4991163313388824,0.4983184933662414,0.4983366429805755,0.5043281316757202,0.5002596974372864,0.4971805214881897,0.5003083348274231,0.4985928833484649,0.5009196400642395,0.4962391555309295,0.4966626763343811,0.4972742795944214,0.4959639012813568,0.4965308308601379,0.4964002966880798,0.4968500435352325,0.49758380651474,0.4979290664196014,0.5012875199317932,0.4983516931533813,0.4971499741077423,0.4978587329387665,0.4984239935874939,0.5005764365196228,0.4940844476222992,0.5002357959747314,0.4938468337059021,0.4975626766681671,0.4991248250007629,0.49679696559906,0.4997842609882355,0.4990074038505554,0.499758243560791,0.4999792277812958,0.4942395389080047,0.498067706823349,0.5009193420410156,0.495633602142334,0.5040872097015381,0.4971248209476471,0.5002076625823975
0.5028494000434875,0.4981703758239746,0.4984481632709503,0.4990759789943695,0.4991325139999389,0.4935493469238281,0.4985836446285248,0.500723123550415,0.4981915354728699,0.4992428421974182,0.5024669170379639,0.4988344609737396,0.4968444108963012,0.4975422322750091,0.497513085603714,0.5019871592521667,0.4968641102313995,0.4969657957553863,0.4973549544811249,0.4967696666717529,0.4969103336334228,0.4928249716758728,0.4996910989284515,0.4971053898334503,0.4942292869091034,0.5002105236053467,0.4980149269104004,0.4961575865745544,0.4986486732959747,0.4991782009601593,0.4990808665752411,0.4983523488044739,0.5014230608940125,0.4987467229366302,0.4971345365047455,0.5003302097320557,0.4977316260337829,0.501305103302002,0.4971530139446258,0.4985198974609375,0.5003218650817871,0.4995678663253784,0.4975491762161255,0.4992799758911133,0.4982672333717346,0.5009883642196655,0.4958071708679199,0.4979289770126343
0.5032215118408203,0.4990841150283813,0.4980331063270569,0.5016533732414246,0.497273325920105,0.4976696372032165,0.4927931427955627,0.5001213550567627,0.4972662627696991,0.4977109432220459,0.5024932622909546,0.4932800233364105,0.4969920217990875,0.4981263875961303,0.4984264373779297,0.5012911558151245,0.4974124133586883,0.496884673833847,0.4962725937366485,0.4949495494365692,0.4965263903141022,0.492177814245224,0.4995997250080108,0.4975278973579407,0.4977020621299743,0.5017987489700317,0.497758686542511,0.4988850653171539,0.4963755011558532,0.4988065063953399,0.5013220906257629,0.4986399412155151,0.4992488324642181,0.4974627196788788,0.4985934495925903,0.5006322264671326,0.4994418919086456,0.5016924738883972,0.498736023902893,0.4986858367919922,0.4988019168376922,0.4988881945610046,0.4966428875923157,0.498292475938797,0.4982947707176208,0.5017064809799194,0.4985219240188598,0.4938594996929168
0.5035474300384521,0.4987479746341705,0.498889148235321,0.5000658631324768,0.5009661316871643,0.494330883026123,0.4958844482898712,0.4999754130840301,0.4991637170314789,0.4976492822170257,0.503800094127655,0.4958678781986236,0.4976429343223572,0.498253732919693,0.4989128708839416,0.5043408274650574,0.4994251132011413,0.4975067973136902,0.4989502131938934,0.4962196946144104,0.4991852343082428,0.4970445334911346,0.5006726384162903,0.4982596635818481,0.4954207837581634,0.4998523294925689,0.4977684319019317,0.4964581429958343,0.4995352327823639,0.5024197101593018,0.4951919317245483,0.4973434507846832,0.4997265636920929,0.4996473491191864,0.4985444545745849,0.498879611492157,0.4967123866081238,0.4998839795589447,0.4978782534599304,0.4984874427318573,0.4998313188552856,0.4983361065387726,0.4970787465572357,0.4941864907741546,0.4983633160591125,0.49974125623703,0.4983009397983551,0.4988669753074646
0.5033221244812012,0.4986505806446075,0.4958679676055908,0.4977830052375793,0.4993197917938232,0.494718849658966,0.4943653047084808,0.5023747682571411,0.4998028576374054,0.4966078102588653,0.5039533972740173,0.4978325068950653,0.4981115758419037,0.4986568987369537,0.4976028800010681,0.5034664869308472,0.4991812109947204,0.4940505623817444,0.4972349405288696,0.496548444032669,0.4970399439334869,0.4971600472927093,0.5013037919998169,0.4942998588085174,0.4942995607852936,0.4948281943798065,0.4984562993049621,0.4982001185417175,0.4951332509517669,0.5016018748283386,0.5001444816589355,0.4975773692131042,0.4991752207279205,0.4994560480117798,0.4995104670524597,0.5002170205116272,0.4975230693817138,0.5011780858039856,0.4945707321166992,0.4979884624481201,0.4994315505027771,0.498762309551239,0.4996354281902313,0.4993800818920135,0.49507936835289,0.5023535490036011,0.4976149499416351,0.497880071401596
0.5034392476081848,0.493707537651062,0.4987712204456329,0.4992484450340271,0.4976642429828644,0.496826171875,0.4956727027893066,0.5029299259185791,0.4991670846939087,0.4989444017410278,0.5025187730789185,0.4978316724300384,0.4993359446525574,0.4982702732086181,0.4975949227809906,0.5034385919570923,0.4988121390342712,0.4961072504520416,0.4945171475410461,0.4915587902069092,0.4972212612628937,0.4958915710449219,0.4947400391101837,0.4969286620616913,0.4989559352397918,0.4946345686912536,0.4990887939929962,0.4972442090511322,0.4964239001274109,0.5004857182502747,0.4997444152832031,0.4970597326755523,0.5004279613494873,0.4975057244300842,0.4992011189460754,0.4990996420383453,0.4945611357688904,0.5013567209243774,0.5007362961769104,0.4991401731967926,0.5011313557624817,0.4992995858192444,0.4978083372116089,0.4979351162910461,0.4971526563167572,0.5006798505783081,0.496518075466156,0.5002821683883667
0.5012730360031128,0.497428148984909,0.4935072064399719,0.4991759061813354,0.4986088275909424,0.4985176920890808,0.4981825649738312,0.5033349394798279,0.4966779053211212,0.4971219897270202,0.5015002489089966,0.4980145990848541,0.4966758191585541,0.496739387512207,0.4992417991161346,0.5035768151283264,0.4967999756336212,0.4979944825172424,0.497787207365036,0.4966917634010315,0.4972772002220154,0.4953688979148865,0.4986850023269653,0.4995627999305725,0.4972911775112152,0.4985138475894928,0.4986732006072998,0.4974546730518341,0.4976788461208343,0.5002390742301941,0.4983539581298828,0.4971949458122253,0.4980990588665008,0.498330146074295,0.5008727312088013,0.5007914304733276,0.4982429444789886,0.4993925392627716,0.5024745464324951,0.4984260499477386,0.4991556406021118,0.498023509979248,0.4968302249908447,0.4985352754592895,0.4998771250247955,0.5000496506690979,0.4997207522392273,0.4942724704742431
0.496908575296402,0.4951196014881134,0.4970285296440124,0.4987587928771972,0.4981743097305298,0.4998675286769867,0.4959892332553863,0.5046326518058777,0.4980878233909607,0.4989416599273681,0.4999894201755523,0.4979283511638641,0.4964189827442169,0.4970159232616424,0.4963590502738952,0.50616455078125,0.4966329634189605,0.4958025813102722,0.4960647225379944,0.498548686504364,0.4986680150032043,0.4967158138751983,0.4985387325286865,0.4988966882228851,0.5004850625991821,0.4994897544384002,0.4999494254589081,0.4962826669216156,0.4968627095222473,0.4980507791042328,0.4981208443641662,0.499145358800888,0.4985816776752472,0.4979005753993988,0.5007084012031555,0.5015649795532227,0.4976512789726257,0.5005367398262024,0.5015673637390137,0.4988207519054413,0.5002658367156982,0.4987288117408752,0.4965130090713501,0.497449666261673,0.4984416961669922,0.5024793148040771,0.4968337118625641,0.4984709024429321
0.5020058155059814,0.500092625617981,0.4983296394348144,0.4980557262897491,0.4974818527698517,0.4994323849678039,0.4959248006343841,0.5022597312927246,0.4963678419589996,0.4973052442073822,0.5002858638763428,0.496234267950058,0.4987432956695556,0.497088223695755,0.4971903264522552,0.5062071084976196,0.4965643882751465,0.4979522824287414,0.4976624548435211,0.497673362493515,0.4976300895214081,0.4963748753070831,0.4980666637420654,0.4999886751174927,0.4975719451904297,0.4989925920963287,0.4975779354572296,0.4963233172893524,0.496707558631897,0.4987272322177887,0.4994286000728607,0.4972537755966186,0.4990776181221008,0.4932371079921722,0.5011020302772522,0.5000423192977905,0.4961620569229126,0.4954268038272857,0.5029469728469849,0.4984302818775177,0.4988357126712799,0.4968317151069641,0.4978783428668976,0.5001257061958313,0.494251936674118,0.5012316703796387,0.4991962313652038,0.4975014925003052
0.4997914433479309,0.4992972910404205,0.4982053637504577,0.4974518120288849,0.4975311160087585,0.5013560056686401,0.4999125897884369,0.5030444860458374,0.4966797530651092,0.4963626861572265,0.4998341500759125,0.4991083741188049,0.4973270297050476,0.4979223906993866,0.4991587102413177,0.5036348104476929,0.4964835047721863,0.4925268292427063,0.4987848997116089,0.4968361556529999,0.4971729815006256,0.4972835779190063,0.5007185339927673,0.5002104043960571,0.49724081158638,0.4978120923042297,0.4985331594944,0.4976565837860107,0.4980916082859039,0.4988483488559723,0.4998229742050171,0.4981531202793121,0.5008722543716431,0.4983248710632324,0.4964228868484497,0.499430775642395,0.4950207769870758,0.4992474913597107,0.5012530088424683,0.4999729096889496,0.4995166063308716,0.494924783706665,0.4994951486587524,0.4969504475593567,0.498257040977478,0.4997836649417877,0.4927557110786438,0.4998947381973266
0.4987357556819916,0.4947558939456939,0.4980634450912475,0.4954248964786529,0.4975432157516479,0.5028025507926941,0.5006750226020813,0.5024659037590027,0.4990863502025604,0.4988758265972137,0.4996830224990845,0.4963944554328918,0.4956783354282379,0.497248500585556,0.4971699118614197,0.5059953927993774,0.496942937374115,0.4951208233833313,0.4996578395366668,0.492982804775238,0.4979488849639892,0.4977276921272278,0.4985304772853851,0.5009581446647644,0.498130053281784,0.5008256435394287,0.4971581101417541,0.4963692426681518,0.4990575015544891,0.498537927865982,0.5003355145454407,0.4995127618312835,0.4980525970458984,0.4989641606807709,0.5013551712036133,0.5005480647087097,0.4981681108474731,0.4995696246623993,0.5005697011947632,0.4983016848564148,0.49866384267807,0.4992365539073944,0.4927318394184112,0.4968010783195495,0.4998156428337097,0.5019180178642273,0.4989866912364959,0.4943143129348755
0.5014373660087585,0.4971399307250976,0.4964536726474762,0.4992043375968933,0.4984849989414215,0.5045297145843506,0.495150089263916,0.502856433391571,0.499512106180191,0.4985578954219818,0.4992690980434418,0.4985360503196716,0.4935148954391479,0.496279776096344,0.4975078403949737,0.5032403469085693,0.497029572725296,0.4957762062549591,0.5005896091461182,0.499165803194046,0.4966736137866974,0.4982613027095794,0.4986067414283752,0.5001991987228394,0.4986781179904938,0.4980707466602325,0.4971644282341003,0.4922070503234863,0.4976769387722015,0.4988976716995239,0.4994521737098694,0.499698132276535,0.499063104391098,0.4976313710212707,0.5008417963981628,0.501211941242218,0.4977732300758362,0.4963234364986419,0.497109979391098,0.4988497793674469,0.4976953566074371,0.4998519420623779,0.4962794780731201,0.4984724223613739,0.4971601068973541,0.5013729333877563,0.4967275857925415,0.4984332621097564
0.5002589225769043,0.4971878230571747,0.49615278840065,0.4977921545505523,0.4947739839553833,0.4996498823165893,0.5010662078857422,0.5036222338676453,0.4960688054561615,0.4985893368721008,0.4990593492984772,0.4985475838184356,0.4960146844387054,0.4976283013820648,0.4970121085643768,0.503572404384613,0.4965162575244903,0.4968378841876983,0.5028766989707947,0.5003519058227539,0.4933482706546783,0.4950795173645019,0.4990170001983642,0.5022411942481995,0.5000659823417664,0.4958944320678711,0.4976744353771209,0.4982547163963318,0.4951454699039459,0.5003798604011536,0.498750627040863,0.4995199739933014,0.4952580034732818,0.497376024723053,0.5006120204925537,0.4988498091697693,0.4950489997863769,0.4998721480369568,0.5028857588768005,0.4997296333312988,0.4937271773815155,0.4987748861312866,0.4986058175563812,0.4979179799556732,0.4975725710391998,0.4988907873630523,0.4975466132164001,0.4990595877170563
0.4985233247280121,0.4988689124584198,0.4979465007781982,0.4959802329540252,0.4976450800895691,0.5030933618545532,0.496498703956604,0.500027060508728,0.4958090186119079,0.4986334443092346,0.4988522231578827,0.4974256753921509,0.4938027858734131,0.4962561428546905,0.4965981841087341,0.5027616620063782,0.4984747171401977,0.4951605200767517,0.4995616376399994,0.498973399400711,0.4984931051731109,0.4963418841361999,0.4973335564136505,0.5043084621429443,0.4973586201667785,0.4988845884799957,0.4987883567810058,0.498357206583023,0.4999322295188904,0.5011406540870667,0.4976153671741485,0.4981085360050201,0.4943689107894897,0.5009069442749023,0.5027005672454834,0.499566912651062,0.4987564086914062,0.4948487281799316,0.5003958344459534,0.5001997947692871,0.4984541535377502,0.4992525279521942,0.4979105591773987,0.4953159689903259,0.4982955753803253,0.5009780526161194,0.4974466860294342,0.4995271563529968
0.4984289407730102,0.4986892640590668,0.4974780082702636,0.4991911649703979,0.4974674582481384,0.5037256479263306,0.4986348152160644,0.5038439631462097,0.4991430044174194,0.4966983199119568,0.4984356462955475,0.4969127476215362,0.4939762949943542,0.4968748986721039,0.4959308505058288,0.5040399432182312,0.4976868033409118,0.4962386786937713,0.5017952919006348,0.5005494356155396,0.4981905221939087,0.5010862946510315,0.4969695508480072,0.4980389475822449,0.4981964826583862,0.4976046681404114,0.4978131353855133,0.5002457499504089,0.4994957149028778,0.4993217289447784,0.4980328977108001,0.4987486004829407,0.4971442222595215,0.4982631206512451,0.4979079961776733,0.5006373524665833,0.4974844753742218,0.4985543489456177,0.4967293441295624,0.4999487698078155,0.4945708513259887,0.5009934902191162,0.4926003813743591,0.4966007173061371,0.4950553476810455,0.4981095194816589,0.4980720281600952,0.4985922574996948
0.4979376792907715,0.4976502358913421,0.4937986731529236,0.4985468685626983,0.4978916347026825,0.5033625960350037,0.5003906488418579,0.5045464634895325,0.4962879419326782,0.4955520629882812,0.5000320076942444,0.4978026747703552,0.49737349152565,0.4975041151046753,0.4945782423019409,0.4986701905727386,0.4929609000682831,0.495276540517807,0.5028846859931946,0.503351092338562,0.4953588843345642,0.5002803206443787,0.4982017278671264,0.5019616484642029,0.4982462525367737,0.4937088787555694,0.4978983104228973,0.4989224076271057,0.4996278882026672,0.4999826550483703,0.4977168142795563,0.5011992454528809,0.4981577694416046,0.5003899335861206,0.5004636645317078,0.499021053314209,0.499182790517807,0.5016007423400879,0.5001950860023499,0.4965139329433441,0.4973123371601105,0.4988798499107361,0.4932249784469604,0.4971305131912231,0.4968475103378296,0.5004472136497498,0.5014267563819885,0.4986811280250549
0.4975259006023407,0.497833639383316,0.4962715208530426,0.497995376586914,0.498600035905838,0.5065288543701172,0.5034274458885193,0.5023351311683655,0.4977128505706787,0.4984185695648193,0.4995646476745605,0.4974685311317444,0.496003657579422,0.4969736933708191,0.4990286231040954,0.5036782026290894,0.4932050704956054,0.4960931241512298,0.5009771585464478,0.5018966794013977,0.5000022649765015,0.5015287399291992,0.4971607327461242,0.5034611225128174,0.4966364502906799,0.498611718416214,0.4938689172267914,0.4994444549083709,0.5011523365974426,0.4987878203392029,0.5000407099723816,0.5026100873947144,0.4988392889499664,0.4966709613800049,0.4958650767803192,0.4998272359371185,0.5009000301361084,0.5008537769317627,0.5008929371833801,0.5014864802360535,0.4958730041980743,0.4998853504657745,0.4966974854469299,0.4969262480735779,0.4982585608959198,0.498915433883667,0.4995400309562683,0.4987554252147674
0.4986948668956756,0.4994764924049377,0.4974446892738342,0.4987961053848266,0.4980648458003998,0.5033422708511353,0.5028344988822937,0.5012162923812866,0.4983943104743957,0.4976809024810791,0.4989984035491943,0.4995468854904175,0.4924331903457641,0.4985944032669067,0.4976685643196106,0.5033687949180603,0.4991044998168945,0.4967868626117706,0.5020893216133118,0.5023808479309082,0.5012673139572144,0.4963344931602478,0.4988743662834167,0.503923237323761,0.4994529783725738,0.4986543357372284,0.4986379742622375,0.5002594590187073,0.4994886815547943,0.4987849593162536,0.494610458612442,0.4982447624206543,0.500085175037384,0.5016520619392395,0.5006821155548096,0.5007448196411133,0.500240683555603,0.4949977099895477,0.5012581944465637,0.5018203854560852,0.4972293376922607,0.5006788969039917,0.4978235960006714,0.4995647966861725,0.4967072308063507,0.4949452579021454,0.4998291432857513,0.4987176954746246
0.4988616406917572,0.4972126483917236,0.4978068768978119,0.496233195066452,0.4965074360370636,0.4996652603149414,0.5012508034706116,0.5020175576210022,0.4989882707595825,0.4952349066734314,0.4975761771202087,0.4986093938350677,0.498506486415863,0.4952137470245361,0.4956624507904053,0.4972983300685882,0.4987186789512634,0.4977037608623504,0.5015296339988708,0.5024303793907166,0.5012996792793274,0.5028343796730042,0.4985549449920654,0.5036503672599792,0.4980058670043945,0.497917503118515,0.4969975054264068,0.5006955862045288,0.4995951354503631,0.500537097454071,0.4972104430198669,0.4973499476909637,0.4969783723354339,0.5006785988807678,0.5008078813552856,0.4984242618083954,0.5000098347663879,0.4987973272800445,0.5022724866867065,0.5010096430778503,0.4977760910987854,0.5004340410232544,0.4989854097366333,0.4965085089206695,0.4996593594551086,0.4992066919803619,0.4998910427093506,0.4973354935646057
0.5002953410148621,0.4971241950988769,0.4962061941623688,0.4968562722206116,0.4979585409164428,0.5052225589752197,0.5043166279792786,0.4965112209320068,0.4987969696521759,0.4957975149154663,0.4990772604942322,0.498546689748764,0.4924004077911377,0.4999904930591583,0.4926537573337555,0.5027762055397034,0.4993509650230407,0.4996885657310486,0.500961422920227,0.5019067525863647,0.500400722026825,0.5007431507110596,0.4993889033794403,0.5055319666862488,0.4976181983947754,0.4991962313652038,0.4971820414066314,0.5012998580932617,0.5001221895217896,0.4983299970626831,0.4982042610645294,0.5010078549385071,0.4986511766910553,0.4990589618682861,0.4986559152603149,0.498282641172409,0.5004515051841736,0.5006823539733887,0.4979622066020965,0.5020955801010132,0.500083327293396,0.5041438937187195,0.4968866407871246,0.4926359355449676,0.4967780411243438,0.5003026723861694,0.5013425350189209,0.4981874823570251
0.498167872428894,0.4955950081348419,0.4965360462665558,0.4974943101406097,0.4943415522575378,0.503349244594574,0.5024523735046387,0.5012681484222412,0.498407244682312,0.4934921860694885,0.5000478625297546,0.4989384412765503,0.4960695505142212,0.5011352896690369,0.4968999624252319,0.5008087754249573,0.4997788667678833,0.5011376738548279,0.4969380497932434,0.4991800189018249,0.5018453001976013,0.4998927116394043,0.4982117116451263,0.4999953508377075,0.4978494346141815,0.4974216818809509,0.4993639290332794,0.5009721517562866,0.5014627575874329,0.4977975189685821,0.4987798929214477,0.5038821697235107,0.5004796981811523,0.5022466778755188,0.4997893273830414,0.4991532564163208,0.5016793012619019,0.4999507367610931,0.4994289875030517,0.503480076789856,0.4983461797237396,0.5024935007095337,0.4963255524635315,0.4974835813045501,0.4928717315196991,0.4991217255592346,0.5011091828346252,0.4974351525306701
0.495627760887146,0.4924012124538421,0.4960193634033203,0.4977540671825409,0.4985598623752594,0.5029029250144958,0.5023133754730225,0.5003769397735596,0.4988909363746643,0.4973450303077698,0.4983697831630707,0.4961175918579101,0.4971533715724945,0.5035123229026794,0.4967241883277893,0.5007314085960388,0.5032095909118652,0.5014630556106567,0.5001924633979797,0.5021488666534424,0.5004810094833374,0.5001344084739685,0.4973084330558777,0.504464864730835,0.4976718127727508,0.496923953294754,0.4977898001670837,0.5013377666473389,0.5021305084228516,0.4981072843074798,0.4990451037883758,0.5037394762039185,0.4991708099842071,0.4981677532196045,0.4971550703048706,0.4976142644882202,0.4966025948524475,0.4938413798809051,0.5004285573959351,0.5015652775764465,0.4983390867710113,0.5030151605606079,0.4986401796340942,0.4989275634288788,0.4971509575843811,0.5012730360031128,0.50184166431427,0.4949474334716797
0.4988223612308502,0.4984479546546936,0.4918451607227325,0.4962527155876159,0.4967421591281891,0.5043902397155762,0.5000550746917725,0.5009118318557739,0.5002633333206177,0.4951310753822326,0.4978357255458832,0.4973575472831726,0.4976019263267517,0.5022701621055603,0.4980658590793609,0.5007085204124451,0.5019290447235107,0.4978755116462707,0.5023640394210815,0.5021942853927612,0.4999750852584839,0.5014614462852478,0.4999511837959289,0.5028482675552368,0.4974969625473022,0.4971624612808227,0.4981317520141601,0.4963376224040985,0.4996376037597656,0.4978964924812317,0.4975049197673797,0.5036489963531494,0.4976480901241302,0.5027315616607666,0.5001760721206665,0.4970809817314148,0.5009915232658386,0.495568037033081,0.4999899566173553,0.5024972558021545,0.4985662996768951,0.5030649304389954,0.4966823756694793,0.4969017505645752,0.4968236982822418,0.5012762546539307,0.5013941526412964,0.4991683959960937
0.4988488256931305,0.4960797727108001,0.4972365796566009,0.4962646663188934,0.4924390316009521,0.5033195614814758,0.5008147358894348,0.4968166351318359,0.5013015270233154,0.4971745014190674,0.49752938747406,0.5034506916999817,0.498624324798584,0.5017493367195129,0.4980102777481079,0.4996687173843384,0.5023770928382874,0.5028193593025208,0.5013808012008667,0.5031250715255737,0.5003111362457275,0.4996340572834015,0.5002928972244263,0.5034046173095703,0.4979961216449737,0.4947839379310608,0.4968121647834778,0.5018057227134705,0.4999720752239227,0.4972986578941345,0.4977699816226959,0.5008651614189148,0.4976070821285248,0.5024959444999695,0.5011672377586365,0.4979776740074157,0.5019549131393433,0.4979343116283417,0.4998423457145691,0.5008832812309265,0.4990389943122864,0.5026236176490784,0.4966403245925903,0.4969947338104248,0.4977952241897583,0.5014548897743225,0.5006992816925049,0.4962662160396576
0.4978390038013458,0.4952156543731689,0.4956785142421722,0.4966523051261902,0.4971469342708587,0.5019659996032715,0.5001112222671509,0.5015546083450317,0.5002071857452393,0.491018682718277,0.4989874064922333,0.5029517412185669,0.4993451833724975,0.5024756789207458,0.4977926015853882,0.5014365911483765,0.5024927258491516,0.5039618611335754,0.4990336894989013,0.5021090507507324,0.5003793835639954,0.5004948377609253,0.5001172423362732,0.5029798746109009,0.4972691833972931,0.4988512694835663,0.4977978765964508,0.5013169646263123,0.5003189444541931,0.4968656301498413,0.4995267689228058,0.5005033016204834,0.4989209175109863,0.5040903091430664,0.5012916326522827,0.4993111193180084,0.4985518157482147,0.4994575381278991,0.4995290040969848,0.4997349083423614,0.4967666268348694,0.5015479922294617,0.4956834018230438,0.4963774383068084,0.4987342953681946,0.4990023970603943,0.5001548528671265,0.4996926784515381
0.4973478019237518,0.4953403174877167,0.4956694543361664,0.4973481893539428,0.4965574145317077,0.5024410486221313,0.5014737844467163,0.5006089210510254,0.5032797455787659,0.4960777461528778,0.4990256428718567,0.4988476932048797,0.4984756112098694,0.5008590221405029,0.4990391433238983,0.5022023916244507,0.501031756401062,0.5034403800964355,0.49996218085289,0.5014837384223938,0.5010631084442139,0.4994195997714996,0.4999605119228363,0.5019428730010986,0.4970614612102508,0.4968366920948028,0.4978812336921692,0.5017918944358826,0.4995271861553192,0.4983706474304199,0.4968540668487549,0.4987877607345581,0.4980544745922088,0.502636730670929,0.4977003335952759,0.4931395351886749,0.4961039125919342,0.4975033402442932,0.4988963305950165,0.5020490884780884,0.4955055117607116,0.5034111142158508,0.498337984085083,0.4960871338844299,0.4990381896495819,0.4990118741989136,0.4998569786548614,0.4959331452846527
0.4975974261760711,0.495383471250534,0.4966452717781067,0.4969382882118225,0.4947749376296997,0.5030322074890137,0.4992413818836212,0.5011717081069946,0.4981808960437774,0.4944273829460144,0.4972964227199554,0.503095805644989,0.5004714727401733,0.5016128420829773,0.4989855289459228,0.5008628368377686,0.5002957582473755,0.5044415593147278,0.5001499056816101,0.5009036660194397,0.5023459792137146,0.4990178048610687,0.5000824928283691,0.501004695892334,0.4978005290031433,0.4967406094074249,0.4976387917995453,0.5002336502075195,0.5001004338264465,0.49649378657341,0.4970730543136596,0.4998588263988495,0.4973606467247009,0.5013166666030884,0.495190680027008,0.4970876276493072,0.5017827153205872,0.4975111782550812,0.4994615912437439,0.5004160404205322,0.4985642433166504,0.4976288378238678,0.4994865357875824,0.4980846047401428,0.4984167516231537,0.5001870393753052,0.5012658834457397,0.4968539178371429
0.4972858130931854,0.4959541857242584,0.4930374324321747,0.4953720271587372,0.4987986385822296,0.5016892552375793,0.4997811019420624,0.4995115995407104,0.5033366680145264,0.4966381192207336,0.4986298978328705,0.50456303358078,0.5016893148422241,0.5038192868232727,0.4994713068008423,0.5003442168235779,0.503447413444519,0.5040326118469238,0.4998567104339599,0.5017228126525879,0.5012182593345642,0.5001890659332275,0.4995627701282501,0.5041189193725586,0.4979859888553619,0.49747434258461,0.4982034265995025,0.5010773539543152,0.4992079436779022,0.4974495470523834,0.4982023537158966,0.5026994347572327,0.499572217464447,0.5020456314086914,0.4990658760070801,0.4973952174186706,0.5026374459266663,0.4977449476718902,0.4994087815284729,0.5001826882362366,0.4980863034725189,0.5038542151451111,0.4991448819637298,0.4960726797580719,0.4976178109645843,0.4998398423194885,0.5011470317840576,0.4980397522449493
0.4968506097793579,0.4972902536392212,0.4985750019550323,0.4968860745429992,0.4939935207366943,0.501121461391449,0.500196099281311,0.4999909996986389,0.5035021305084229,0.4950459599494934,0.4981487989425659,0.4998812079429626,0.502659261226654,0.5012153387069702,0.5020776987075806,0.5009317994117737,0.5005127191543579,0.5020288228988647,0.5011811256408691,0.501327395439148,0.5017319917678833,0.4997395575046539,0.4981595575809479,0.5011206865310669,0.4976660907268524,0.4941695928573608,0.497831791639328,0.5027037858963013,0.4989454448223114,0.4973140954971313,0.4989812970161438,0.5027446746826172,0.5002105832099915,0.5026718378067017,0.4989265501499176,0.4956061542034149,0.499160498380661,0.4984602630138397,0.4996617138385772,0.4999485909938812,0.4995083808898926,0.5016396045684814,0.5000872015953064,0.4923052489757538,0.4963062405586242,0.4990620911121368,0.4997164309024811,0.4982238113880157
0.4933545291423797,0.4960883259773254,0.4967322945594787,0.4961395859718323,0.493516206741333,0.5004776120185852,0.4989020228385925,0.4956631958484649,0.5019644498825073,0.4947134256362915,0.4982440769672394,0.5015920996665955,0.5017871856689453,0.5041452050209045,0.5020159482955933,0.5025049448013306,0.4974267482757568,0.5043014883995056,0.5008865594863892,0.5011128783226013,0.5000918507575989,0.4984996020793915,0.4963770806789398,0.5012181997299194,0.4971512854099273,0.4960808157920837,0.4978841543197632,0.5006549954414368,0.4986310601234436,0.4989270567893982,0.4977796375751495,0.5028715133666992,0.4975976943969726,0.4998111426830292,0.5000544786453247,0.4973120391368866,0.5006351470947266,0.4972191452980041,0.5000381469726562,0.5008432269096375,0.4997838139533996,0.5013318657875061,0.4993159472942352,0.4969398975372314,0.4971757233142853,0.4994391500949859,0.4995134770870209,0.4966577887535095
0.4985240995883941,0.4977609813213348,0.4973471760749817,0.4969790875911712,0.4982684254646301,0.5009263157844543,0.5000165104866028,0.4968477487564087,0.501251220703125,0.4925321340560913,0.4977313578128814,0.502492368221283,0.5039848685264587,0.5006064772605896,0.5023715496063232,0.5011904239654541,0.501854419708252,0.5017950534820557,0.4981289803981781,0.5002951622009277,0.5017634034156799,0.498504638671875,0.4974641799926758,0.5021853446960449,0.4968619644641876,0.4924535751342773,0.4957639276981354,0.4992580115795135,0.5011201500892639,0.4940138757228851,0.4977626800537109,0.5008063316345215,0.4986942410469055,0.5001346468925476,0.4991588890552521,0.4974654912948608,0.4991811513900757,0.4974354207515716,0.4986471235752105,0.4994687438011169,0.4989108741283417,0.5013575553894043,0.4999647736549377,0.4953678846359253,0.4964379072189331,0.5009928345680237,0.5006803870201111,0.4989411532878876
0.4961164593696594,0.4997305274009704,0.495747298002243,0.497942566871643,0.498464435338974,0.5012795329093933,0.5010347366333008,0.4992646872997284,0.5014355182647705,0.4958173334598541,0.4998303949832916,0.5027614235877991,0.5023525953292847,0.5011230111122131,0.5018084645271301,0.5020201206207275,0.5007993578910828,0.502126157283783,0.4987146854400635,0.5003291368484497,0.5010648369789124,0.497598648071289,0.4968699514865875,0.5019177794456482,0.4985702633857727,0.4963927865028381,0.4978395104408264,0.4998043179512024,0.5006003975868225,0.4992129802703857,0.4986675083637237,0.4996383190155029,0.4946898221969604,0.5018133521080017,0.4976660907268524,0.4998029768466949,0.5013625025749207,0.4970483183860779,0.4962548613548279,0.5001649856567383,0.4976333379745483,0.5014832615852356,0.5014467835426331,0.4975646734237671,0.4993585050106048,0.5001887083053589,0.4990279972553253,0.4995853900909424
0.4927303194999695,0.4978072643280029,0.4987107813358307,0.4949248433113098,0.498742938041687,0.5020758509635925,0.5005699396133423,0.4960674345493316,0.5011664628982544,0.4973583817481994,0.4971046149730682,0.5015006065368652,0.5015121698379517,0.5015372633934021,0.5013919472694397,0.500372588634491,0.496347576379776,0.5027233362197876,0.499582439661026,0.4993036389350891,0.5012995004653931,0.4981922209262848,0.4960854053497314,0.5028324127197266,0.4972090721130371,0.4961894452571869,0.4990245997905731,0.4999823272228241,0.5001392364501953,0.4980727732181549,0.4983088374137878,0.5001717209815979,0.4972040057182312,0.5011723637580872,0.4976329505443573,0.4992405772209167,0.4994726181030273,0.4981921315193176,0.4989571571350097,0.5001894235610962,0.4966833293437958,0.5022677779197693,0.5021194219589233,0.4971054792404175,0.4969704747200012,0.4992995262145996,0.5003718137741089,0.4992553889751434
0.498979389667511,0.4946916401386261,0.4994951784610748,0.4964702725410461,0.5002229809761047,0.498958021402359,0.4958637058734894,0.4993983507156372,0.5017037987709045,0.4962084889411926,0.4964761137962341,0.5008189678192139,0.5021471977233887,0.5016516447067261,0.5007069110870361,0.5012416839599609,0.4991454482078552,0.5029361248016357,0.4978733658790588,0.4997977316379547,0.4989791512489319,0.4975334703922272,0.4931433498859405,0.5016918182373047,0.4941569566726684,0.4971214532852173,0.4968921840190887,0.5007225275039673,0.4971642196178436,0.4989670813083648,0.4979047179222107,0.5001567602157593,0.496753990650177,0.5000506639480591,0.4976682066917419,0.4970313310623169,0.4988356828689575,0.4982644915580749,0.4978503584861755,0.4999353885650635,0.4976552724838257,0.5019883513450623,0.5031253099441528,0.4969050884246826,0.4993335604667663,0.4997860193252563,0.4997429251670837,0.4976302683353424
0.4940301477909088,0.4993407428264618,0.5018431544303894,0.4916070103645324,0.5001769065856934,0.500811755657196,0.4978008866310119,0.501121461391449,0.5002104043960571,0.4930992722511291,0.4972469806671142,0.5023475289344788,0.5016503930091858,0.5010474920272827,0.5033634305000305,0.5006300210952759,0.4976096451282501,0.5039566159248352,0.498858243227005,0.4989973306655884,0.4937642514705658,0.4974122941493988,0.4970467388629913,0.5014163255691528,0.4984070956707001,0.4972254037857055,0.4976790845394134,0.4990158379077911,0.4990256130695343,0.4967846274375915,0.4984242618083954,0.4985904991626739,0.4986343681812286,0.5015134215354919,0.4983023107051849,0.4986472725868225,0.4995597600936889,0.4996725618839264,0.4977649450302124,0.5003014802932739,0.4989570379257202,0.501003623008728,0.5012621283531189,0.4971856474876404,0.4991052746772766,0.4990851879119873,0.4986310005187988,0.4979895055294037
0.497673898935318,0.4960149526596069,0.5003378987312317,0.4924714565277099,0.501867949962616,0.4996702075004577,0.4950917661190033,0.4987274408340454,0.5025559663772583,0.4991281032562256,0.4969670474529266,0.5024420619010925,0.5014528632164001,0.4996111392974853,0.5011327862739563,0.500018298625946,0.4993041157722473,0.5013506412506104,0.4976842105388641,0.4965230226516723,0.4973966479301452,0.4973320364952087,0.4968218505382538,0.4961217045783996,0.4940051138401031,0.495963990688324,0.496694803237915,0.4959219396114349,0.4976657330989837,0.4976420104503631,0.4987060725688934,0.4970222115516662,0.4980404376983642,0.502180278301239,0.4996892809867859,0.4968647956848144,0.500946581363678,0.4972598850727081,0.4980708658695221,0.4995084404945373,0.4991475939750671,0.5010271668434143,0.5030204057693481,0.4962402284145355,0.4975923597812652,0.4992359578609466,0.4997211396694183,0.4965056180953979
