2_Baseline_1,2_HIGH_1,2_REST_1,2_HIGH_2,2_REST_2,2_LOW_1,2_REST_3,2_LOW_2,2_REST_4,2_HIGH_3,2_REST_5,2_HIGH_4,2_REST_6,2_LOW_3,2_REST_7,2_LOW_4,2_REST_8,2_HIGH_5,2_REST_9,2_LOW_5,2_REST_10,2_LOW_6,2_REST_11,2_HIGH_6,2_REST_12,2_HIGH_7,2_REST_13,2_HIGH_8,2_REST_14,2_LOW_7,2_REST_15,2_LOW_8,2_REST_16,2_HIGH_9,2_REST_17,2_HIGH_10,2_REST_18,2_LOW_9,2_REST_19,2_LOW_10,2_REST_20,2_HIGH_11,2_REST_21,2_LOW_11,2_REST_22,2_LOW_12,2_REST_23,2_HIGH_12
0.5030243396759033,0.4886161386966705,0.5109595656394958,0.4868404269218445,0.4961110651493072,0.4997119903564453,0.5152668952941895,0.4754888117313385,0.4979245066642761,0.4865658581256866,0.4932789802551269,0.4772595763206482,0.510275661945343,0.4871116876602173,0.5160130262374878,0.4916214346885681,0.5054047703742981,0.4978178739547729,0.4991766810417175,0.4963551759719848,0.5060686469078064,0.5210738778114319,0.4850631356239319,0.4798368215560913,0.4973499178886413,0.4955908060073852,0.4939700961112976,0.5083795189857483,0.5057381987571716,0.5009511709213257,0.51494961977005,0.501887321472168,0.5088315606117249,0.4840140044689178,0.498106449842453,0.5123438239097595,0.4958727955818176,0.5098869800567627,0.5011038184165955,0.4830934405326843,0.5174546837806702,0.4800259172916412,0.4953756630420685,0.4799898266792297,0.5037134289741516,0.4819701015949249,0.4851608574390411,0.4782674610614776
0.5049362778663635,0.490315705537796,0.5103118419647217,0.4840723574161529,0.4959131479263305,0.503011167049408,0.5178604125976562,0.4773845374584198,0.4967601001262665,0.491666167974472,0.4911036789417267,0.4720256626605987,0.5085169672966003,0.488597422838211,0.5138213038444519,0.4934601187705993,0.50142502784729,0.4973821640014648,0.4988730549812317,0.4956289827823639,0.5087326169013977,0.5208210945129395,0.4852384030818939,0.4793634116649627,0.4984625577926636,0.4948803782463074,0.493559330701828,0.5090714693069458,0.5017725229263306,0.5019264221191406,0.514936089515686,0.5043688416481018,0.51185142993927,0.4808173179626465,0.4999322593212127,0.5096637010574341,0.497658222913742,0.5106691122055054,0.5014815330505371,0.4824346601963043,0.520285427570343,0.4793134927749634,0.4990313053131103,0.4812884032726288,0.5043670535087585,0.4840801358222961,0.4860734641551971,0.4778731763362884
0.4965447783470154,0.4887835681438446,0.5072199702262878,0.4845838248729706,0.4961839318275451,0.501632809638977,0.5156590938568115,0.4810770153999328,0.4920054674148559,0.492610365152359,0.4946393370628357,0.4740490317344665,0.5104706287384033,0.4850897490978241,0.5123062133789062,0.4921897947788238,0.4973348379135132,0.5000463128089905,0.4965015053749084,0.4970226585865021,0.5121381282806396,0.5169841051101685,0.487716406583786,0.479899138212204,0.4984819591045379,0.4932860136032104,0.4920181334018707,0.5098478198051453,0.5034722685813904,0.5029160976409912,0.5152290463447571,0.5047793388366699,0.5126193761825562,0.477862000465393,0.4977480173110962,0.5078110694885254,0.4951991140842438,0.5100408792495728,0.5021539330482483,0.4842239320278168,0.5190432667732239,0.4803017973899841,0.5030126571655273,0.4780108332633972,0.5030670762062073,0.482168585062027,0.4842547178268432,0.4797725081443786
0.5039174556732178,0.4880693852901459,0.5043487548828125,0.4871556162834167,0.4953459501266479,0.5011757016181946,0.5091294646263123,0.4861852824687958,0.49650439620018,0.50461345911026,0.4922313392162323,0.4774901568889618,0.5115594267845154,0.4824253916740417,0.5050003528594971,0.4926249980926513,0.5017586350440979,0.4989148080348968,0.4962196946144104,0.4978340864181518,0.5106978416442871,0.5150057673454285,0.4938087165355682,0.479535847902298,0.4977715015411377,0.4924296140670776,0.4934726357460022,0.5019089579582214,0.5027161240577698,0.4996096193790436,0.5190054178237915,0.5021341443061829,0.5129485726356506,0.4811558127403259,0.4979282021522522,0.5088922381401062,0.4992313683032989,0.5070827007293701,0.4986592233181,0.4833701848983764,0.5137469172477722,0.4784852266311645,0.5044463872909546,0.4788412451744079,0.5037141442298889,0.4804832935333252,0.4853651523590088,0.4770892560482025
0.5008416175842285,0.4905363619327545,0.5097351670265198,0.485613614320755,0.490733802318573,0.4990611672401428,0.5143341422080994,0.4931073784828186,0.4933848083019256,0.5080491304397583,0.4889155030250549,0.4759369194507599,0.5077871680259705,0.4830484986305237,0.5116313099861145,0.4910847842693329,0.4958494901657104,0.4956783354282379,0.4967012405395508,0.4962225258350372,0.5099782347679138,0.5159323215484619,0.4967073798179626,0.4772739708423614,0.4987496733665466,0.4912739396095276,0.4941143691539764,0.50461345911026,0.5033893585205078,0.5026721358299255,0.5190097689628601,0.5015881657600403,0.5110673904418945,0.4828319251537323,0.4974638223648071,0.5075377821922302,0.4970611035823822,0.5018473863601685,0.4993290901184082,0.4815329909324646,0.5163446068763733,0.4735592305660248,0.5070076584815979,0.4802683591842651,0.5013262629508972,0.4818933010101318,0.4836271405220032,0.4807363748550415
0.50173020362854,0.4853668808937073,0.5066176056861877,0.4866943359375,0.4941484928131103,0.4980148375034332,0.512021541595459,0.4992478191852569,0.4929333031177521,0.5153588652610779,0.4927573204040527,0.4770132303237915,0.5082778930664062,0.4860742390155792,0.5107162594795227,0.491821676492691,0.5013637542724609,0.4961286783218384,0.4975689053535461,0.4963055551052093,0.5094462633132935,0.5095896124839783,0.5016120076179504,0.4779041707515716,0.4928402304649353,0.4922282993793487,0.4886819422245025,0.5051481127738953,0.5021198391914368,0.4986666440963745,0.5174306631088257,0.5005882978439331,0.5057572722434998,0.4838986992835998,0.4946978390216827,0.5047783851623535,0.4969520568847656,0.5058478116989136,0.4978266060352325,0.4784303903579712,0.515203595161438,0.4784532785415649,0.5103403925895691,0.4808497428894043,0.5005878210067749,0.4834605157375335,0.4835350811481476,0.4792037606239319
0.4992186725139618,0.4824661016464233,0.5083229541778564,0.485992819070816,0.4918034076690674,0.4993356168270111,0.5105751156806946,0.5052566528320312,0.4902424216270447,0.5205773711204529,0.4949353039264679,0.4754193127155304,0.5099602341651917,0.4858842194080353,0.5067577958106995,0.4929830133914947,0.4995829463005066,0.4973263740539551,0.495452731847763,0.4933981895446777,0.5092100501060486,0.514168381690979,0.5018858313560486,0.4746870994567871,0.4963456988334656,0.4889979362487793,0.493148922920227,0.5039053559303284,0.5020743608474731,0.4946946501731872,0.5167513489723206,0.501520574092865,0.5045995116233826,0.4849707186222076,0.4945075809955597,0.4992278218269348,0.497436374425888,0.5064677000045776,0.4983933568000793,0.483157753944397,0.5150308012962341,0.4787114560604095,0.512097179889679,0.479617178440094,0.5028764009475708,0.4803427755832672,0.4837435483932495,0.4762622117996216
0.5030097961425781,0.4831307232379913,0.5093246102333069,0.4813592433929443,0.4970555603504181,0.499009370803833,0.5107125639915466,0.5121011734008789,0.4917333126068115,0.5227680206298828,0.4918877482414245,0.4714315831661224,0.5095759034156799,0.4805030524730682,0.5065484046936035,0.4893591403961181,0.4989936053752899,0.493464708328247,0.4918615520000458,0.4951308369636535,0.5064466595649719,0.5111225843429565,0.5116723775863647,0.4810779988765716,0.4962384104728699,0.4873300790786743,0.4946119487285614,0.5008862018585205,0.4975290894508362,0.5008118152618408,0.517300009727478,0.4995425939559936,0.5067628026008606,0.4859897196292877,0.4946880340576172,0.5017982721328735,0.4967519640922546,0.5038579702377319,0.4951462149620056,0.4842440783977508,0.5163989663124084,0.4777905642986297,0.5082999467849731,0.4815145134925842,0.5006670355796814,0.4798811972141266,0.483115553855896,0.4769818484783172
0.501818060874939,0.4898290336132049,0.5088237524032593,0.4848309457302093,0.4970710575580597,0.4960082769393921,0.5121934413909912,0.5134458541870117,0.4915764033794403,0.5210357308387756,0.4926196038722992,0.4754796028137207,0.5086364150047302,0.48314169049263,0.5055732131004333,0.4923969805240631,0.5003652572631836,0.4956308007240295,0.4964265823364258,0.4919165670871734,0.501871645450592,0.5108038783073425,0.5146907567977905,0.4819617867469787,0.4960873425006866,0.4879080355167389,0.4938811361789703,0.5013216733932495,0.5037470459938049,0.4970747232437134,0.5159534215927124,0.4990984499454498,0.505996823310852,0.489035427570343,0.4966512620449066,0.4995122849941253,0.4912264049053192,0.501757800579071,0.4926763772964477,0.4824461340904236,0.5163272619247437,0.4793742895126343,0.5135678052902222,0.4787008762359619,0.5026410222053528,0.4797356724739074,0.482425183057785,0.4761498272418976
0.4955401122570038,0.4844380021095276,0.507024347782135,0.482212096452713,0.4950366616249084,0.4960624575614929,0.5104316473007202,0.5215256214141846,0.4911631643772125,0.5250763297080994,0.4929118454456329,0.4793888628482818,0.5056857466697693,0.4854627251625061,0.5022686719894409,0.4895707666873932,0.4999008774757385,0.4939731955528259,0.4966534078121185,0.4946222901344299,0.5047204494476318,0.5075415968894958,0.5193004608154297,0.4857564270496368,0.4972906410694122,0.4869897067546844,0.4936471283435821,0.4967066049575805,0.5009621381759644,0.4970890879631042,0.5142020583152771,0.4963742196559906,0.5007011294364929,0.4899636507034302,0.4974763393402099,0.4984405040740967,0.4959233105182647,0.5035671591758728,0.4985439479351043,0.4845844507217407,0.5140604376792908,0.4758568406105041,0.517109751701355,0.4746904373168945,0.5007603168487549,0.4752856194972992,0.4823156893253326,0.4786677062511444
0.5006129145622253,0.4906768798828125,0.5069823265075684,0.4833150506019592,0.4942189455032348,0.4959864318370819,0.5064371228218079,0.5245290398597717,0.4884208738803863,0.5251106023788452,0.4912814199924469,0.4814877212047577,0.5075753927230835,0.4844537377357483,0.5022985339164734,0.4892182648181915,0.4991522133350372,0.4927239120006561,0.495613157749176,0.4927663207054138,0.5006284117698669,0.500312089920044,0.5148835182189941,0.4884122312068939,0.4961950778961181,0.4874964356422424,0.4923316240310669,0.500287652015686,0.5005552172660828,0.4955528676509857,0.5133850574493408,0.4982256591320038,0.4964437782764435,0.4973650872707367,0.4958192706108093,0.5015381574630737,0.493647813796997,0.5015974640846252,0.4992515742778778,0.4869856834411621,0.5125940442085266,0.4774661064147949,0.5160701870918274,0.4785598814487457,0.5002320408821106,0.4758668839931488,0.4809299409389496,0.4797307848930359
0.5022546648979187,0.4897886514663696,0.509046733379364,0.4850395023822784,0.4917709529399872,0.4932774305343628,0.5072272419929504,0.5324699282646179,0.4903178513050079,0.5267668962478638,0.4887227416038513,0.4858318567276001,0.5050312876701355,0.4849037826061249,0.4991655647754669,0.4874387681484222,0.498424768447876,0.4915692210197449,0.4938783943653106,0.4950063228607178,0.5058884024620056,0.5022895336151123,0.5243305563926697,0.491610586643219,0.4913890063762665,0.4849089086055755,0.4935565888881683,0.4977011084556579,0.500728964805603,0.4983771741390228,0.5121065378189087,0.4982895255088806,0.5016172528266907,0.501266598701477,0.4966118633747101,0.4984962940216064,0.4958232939243316,0.5009716153144836,0.49602210521698,0.4920514822006225,0.5117130875587463,0.4807154536247253,0.5120717883110046,0.4782282710075378,0.4987629950046539,0.4804916977882385,0.4830941557884216,0.4779830276966095
0.4993251860141754,0.4883242547512054,0.5079956650733948,0.4787238836288452,0.4976018667221069,0.4952315092086792,0.5042380690574646,0.5333216190338135,0.48792165517807,0.5286260843276978,0.4922899007797241,0.4896571338176727,0.5081575512886047,0.4844562113285064,0.4985773265361786,0.4902668595314026,0.4983099400997162,0.4880411326885223,0.4908164143562317,0.4932600855827331,0.5022503137588501,0.497720867395401,0.5218325257301331,0.4965713918209076,0.4946189522743225,0.4870286881923675,0.492037683725357,0.4980982840061188,0.4995631277561188,0.496780663728714,0.5123459696769714,0.4921181499958038,0.5011061429977417,0.5015317797660828,0.4928143918514251,0.5000719428062439,0.4946765005588531,0.4997677803039551,0.4957723915576935,0.4971213340759277,0.5039107799530029,0.4821480214595794,0.5163589715957642,0.4797185659408569,0.5010923743247986,0.4802563786506653,0.4795460402965545,0.4779579043388366
0.4978790283203125,0.4894399344921112,0.5078243613243103,0.4839444458484649,0.4995847344398498,0.4941010773181915,0.5005246996879578,0.5348085165023804,0.4869728088378906,0.5311827659606934,0.4931800961494446,0.495208591222763,0.5062898397445679,0.4828907549381256,0.5006370544433594,0.4842031002044678,0.4992783069610595,0.4890710413455963,0.4940460622310638,0.4927769601345062,0.5024414658546448,0.5014615654945374,0.526012659072876,0.5002831816673279,0.4915256798267364,0.4847416281700134,0.4938171505928039,0.4974394142627716,0.5006309151649475,0.4953720271587372,0.5116990208625793,0.4952597618103027,0.5003297328948975,0.5078364610671997,0.4963594973087311,0.4971475005149841,0.4952684938907623,0.4994151890277862,0.4910006821155548,0.5029980540275574,0.5079078078269958,0.4855740070343017,0.5172910094261169,0.4741953015327453,0.4937857687473297,0.4801158308982849,0.4816192090511322,0.4769384264945984
0.5001750588417053,0.4863418042659759,0.508330762386322,0.4787881970405578,0.5033224821090698,0.4914928674697876,0.5017913579940796,0.5356451869010925,0.4857394397258758,0.5318952798843384,0.4918544888496399,0.5006749033927917,0.506026566028595,0.4843169450759887,0.4996588826179504,0.4894524812698364,0.4957635700702667,0.4873817563056946,0.493520975112915,0.4942570030689239,0.5016487836837769,0.499955952167511,0.5231102705001831,0.505884051322937,0.4955028891563415,0.4852013289928436,0.4927171468734741,0.4971502423286438,0.4982117116451263,0.4938843250274658,0.510549008846283,0.4963079392910003,0.5007372498512268,0.512708842754364,0.4937540292739868,0.4982996881008148,0.4958586990833282,0.4988680183887481,0.4977597296237945,0.5068508982658386,0.5063811540603638,0.4870391488075256,0.5108903646469116,0.4783820509910583,0.4931357204914093,0.4809009134769439,0.4830460846424103,0.4774478673934936
0.4995275735855102,0.4902853667736053,0.5029337406158447,0.484886884689331,0.5043162703514099,0.4908466637134552,0.5017591714859009,0.5353145599365234,0.4867050051689148,0.522085428237915,0.4946835935115814,0.50499027967453,0.5053402185440063,0.4781565368175506,0.4994219243526459,0.4910391867160797,0.4950416684150696,0.4887568056583404,0.4970554113388061,0.4919152855873108,0.5004728436470032,0.4970728456974029,0.5232874751091003,0.5097248554229736,0.4911295473575592,0.4861521422863006,0.4947227835655212,0.4978048801422119,0.5004099607467651,0.4924139082431793,0.509329080581665,0.4943387806415558,0.5016866326332092,0.5132683515548706,0.4921450912952423,0.4978778958320617,0.4945927262306213,0.4976668059825897,0.4934983551502228,0.5114492774009705,0.5051578879356384,0.4911233782768249,0.5148912668228149,0.4790831804275512,0.4936773180961609,0.478577196598053,0.4796010255813598,0.4744146466255188
0.497927188873291,0.4882209599018097,0.4997879266738891,0.4851018488407135,0.5053249597549438,0.4908856749534607,0.503916323184967,0.5350258946418762,0.48570516705513,0.5287089943885803,0.4928053915500641,0.5077201724052429,0.5001205205917358,0.4828197062015533,0.5005209445953369,0.487625390291214,0.4926183819770813,0.4878583550453186,0.4942207038402557,0.48771733045578,0.5014815330505371,0.4993826150894165,0.5238057374954224,0.5098860859870911,0.4908693134784698,0.4801753461360931,0.493538498878479,0.4955419600009918,0.4993795156478882,0.4934748113155365,0.510128378868103,0.4916926622390747,0.4994808137416839,0.5149675607681274,0.4933434724807739,0.4958601593971252,0.4913904964923858,0.4926879703998565,0.492181658744812,0.5177051424980164,0.5052566528320312,0.4981321096420288,0.514876127243042,0.4774351119995117,0.4972279071807861,0.4803057909011841,0.4820079207420349,0.4776901602745056
0.4950946569442749,0.4873158931732178,0.506006121635437,0.4821406900882721,0.5063237547874451,0.489869087934494,0.5023679733276367,0.5379525423049927,0.4852661788463592,0.5264622569084167,0.4941644966602325,0.5096672177314758,0.5055579543113708,0.4802943170070648,0.4969934821128845,0.4901162087917328,0.4886974394321441,0.487698495388031,0.4949429333209991,0.4908602237701416,0.5000172853469849,0.5003783106803894,0.5239198803901672,0.5138834714889526,0.4942618608474731,0.4855383038520813,0.4964815080165863,0.496530145406723,0.5000155568122864,0.4927616119384765,0.5078256726264954,0.4935081601142883,0.5000292658805847,0.5195745229721069,0.4883509278297424,0.4952857792377472,0.4932802617549896,0.496952623128891,0.4945083260536194,0.5230780243873596,0.5042256712913513,0.5011614561080933,0.5154080390930176,0.4801786541938782,0.4965853691101074,0.4798852801322937,0.4849646389484405,0.4787690341472626
0.5002754926681519,0.4870890974998474,0.5051503777503967,0.4812524616718292,0.5085709691047668,0.4867303073406219,0.5002561211585999,0.5334887504577637,0.4852937161922455,0.524998664855957,0.4971801340579986,0.5100009441375732,0.5040143728256226,0.481802761554718,0.4991075694561004,0.4838280379772186,0.4915052354335785,0.4820896983146667,0.4953926503658294,0.4913148283958435,0.501732587814331,0.4944116473197937,0.523773729801178,0.5156809091567993,0.4915301501750946,0.4828659892082214,0.498355507850647,0.4961239397525787,0.4938506186008453,0.4910692870616913,0.5055202841758728,0.4914604127407074,0.4996581077575683,0.5166527628898621,0.491527110338211,0.4938960671424866,0.4892025887966156,0.4957216680049896,0.4931616187095642,0.5263730883598328,0.5029212832450867,0.5032724142074585,0.5162286162376404,0.4797990024089813,0.4973953664302826,0.4801855981349945,0.4860476553440094,0.4754296839237213
0.4989364743232727,0.4845695793628692,0.505546510219574,0.4811465144157409,0.5060612559318542,0.4885238111019134,0.5024315118789673,0.5356181263923645,0.4824284017086029,0.5275213718414307,0.5001149773597717,0.5157657861709595,0.5036966800689697,0.4779253900051117,0.4990153014659881,0.4863017499446869,0.4916447699069977,0.4864795804023742,0.4953503906726837,0.4917199909687042,0.5026853680610657,0.4978241622447967,0.5244950652122498,0.509021520614624,0.4953558444976806,0.4833584129810333,0.4996358156204223,0.4962735176086426,0.4962165951728821,0.4907636344432831,0.5022410750389099,0.4918878376483917,0.499485045671463,0.5210801959037781,0.4955171048641205,0.4912586808204651,0.4896469712257385,0.4940327703952789,0.4932323694229126,0.5290340781211853,0.5022034645080566,0.506386399269104,0.5132242441177368,0.4836650192737579,0.4960680603981018,0.4793503880500793,0.4905193448066711,0.4765639305114746
0.4983235895633697,0.4880682528018951,0.5057359933853149,0.481565922498703,0.5086205005645752,0.4872335791587829,0.5005998611450195,0.5271058678627014,0.4846133291721344,0.5259674191474915,0.5026387572288513,0.519010603427887,0.5029310584068298,0.4800930917263031,0.498199850320816,0.4887584149837494,0.492777943611145,0.4835610687732696,0.496349424123764,0.488324761390686,0.4991943836212158,0.4930174350738525,0.517334520816803,0.5167356133460999,0.4947961270809173,0.4796757102012634,0.500531792640686,0.4966195821762085,0.4998697340488434,0.4908745884895324,0.5054453611373901,0.4903485476970672,0.4988003671169281,0.5191895365715027,0.494715541601181,0.4940113723278045,0.4940242767333984,0.4937566816806793,0.493283599615097,0.5279083847999573,0.5012813210487366,0.5081509947776794,0.5131810307502747,0.4844425022602081,0.4921614527702331,0.4757760763168335,0.4964175522327423,0.4786350727081299
0.4902157783508301,0.4895784556865692,0.5046680569648743,0.482122004032135,0.5035268068313599,0.4855579733848572,0.4977660477161407,0.5327892303466797,0.4836964309215545,0.5222278237342834,0.5058594346046448,0.5177306532859802,0.5003862977027893,0.4829603731632232,0.4968535602092743,0.489276111125946,0.4917634427547455,0.4850002527236938,0.4964483082294464,0.4874273240566253,0.5022738575935364,0.4980479776859283,0.5182179808616638,0.5154726505279541,0.4958864450454712,0.4831598699092865,0.5046795606613159,0.4944303631782532,0.4967453479766845,0.4892223179340362,0.5045368671417236,0.4902390241622925,0.4999893605709076,0.5179023742675781,0.495576411485672,0.4914940893650055,0.4931901693344116,0.4928120672702789,0.4910942614078522,0.5297773480415344,0.4986492395401001,0.5107738971710205,0.5070369243621826,0.4893914461135864,0.4937741756439209,0.4800088703632355,0.5005306601524353,0.4809065163135528
0.4957122206687927,0.4878359138965606,0.5034074187278748,0.4826700687408447,0.5067387819290161,0.4872497320175171,0.5011952519416809,0.5305138826370239,0.4841175079345703,0.5235307812690735,0.5059537887573242,0.521281361579895,0.5021180510520935,0.4818853437900543,0.4978193938732147,0.4862997829914093,0.4924899637699127,0.4831393659114837,0.4937763810157776,0.4887867569923401,0.4952100217342376,0.4992260336875915,0.521275520324707,0.5173376798629761,0.4945041835308075,0.4846290349960327,0.5010477900505066,0.4910063147544861,0.4964072406291961,0.4900375306606293,0.5047038197517395,0.4865636229515075,0.4991553723812103,0.5208272337913513,0.4981363415718078,0.4917480647563934,0.4914027452468872,0.491809070110321,0.487724632024765,0.5312557816505432,0.4956993460655212,0.5122279524803162,0.5096491575241089,0.4962699115276336,0.4914694130420685,0.4785304665565491,0.5046612024307251,0.4843651950359344
0.4941403865814209,0.4864005744457245,0.5019165277481079,0.4835187196731567,0.5051324963569641,0.4862852692604065,0.5008029341697693,0.5308201313018799,0.4844182431697845,0.5220429301261902,0.5061933994293213,0.5212367177009583,0.4983023405075073,0.4798663556575775,0.4979152679443359,0.4880974590778351,0.485034167766571,0.4828352928161621,0.4923122823238373,0.4864991307258606,0.4985547065734863,0.4965393245220184,0.5192069411277771,0.5140578746795654,0.4915207922458648,0.4838960170745849,0.5043439269065857,0.4948469698429107,0.4970528781414032,0.4890777468681335,0.504243791103363,0.4882785379886627,0.4950408935546875,0.5179572105407715,0.5008814334869385,0.4918092489242553,0.4909880757331848,0.4908599853515625,0.4894003570079803,0.5354083776473999,0.4988287985324859,0.5126172304153442,0.5079830288887024,0.5052846074104309,0.4923758208751678,0.4795069098472595,0.5060694217681885,0.4858376681804657
0.4946828484535217,0.4881617426872253,0.5039692521095276,0.4842522144317627,0.508580207824707,0.4851692914962768,0.4971198141574859,0.5284485220909119,0.4831316471099853,0.5154894590377808,0.5035715699195862,0.5195507407188416,0.4981172382831573,0.4811209440231323,0.4945204854011535,0.4872079193592071,0.4899256229400635,0.4844252467155456,0.493526428937912,0.4877747595310211,0.5003964900970459,0.4961014688014984,0.5190558433532715,0.5142561197280884,0.4953830540180206,0.4788771867752075,0.5031319260597229,0.4911089241504669,0.498198390007019,0.4872846901416778,0.5005297064781189,0.487612783908844,0.4959065318107605,0.5201923847198486,0.503199577331543,0.4887047410011291,0.4920451045036316,0.4878954589366913,0.4881466329097748,0.5328590273857117,0.4994161128997803,0.5147824287414551,0.5103258490562439,0.5117839574813843,0.4911731481552124,0.4781793653964996,0.5108491778373718,0.4906185567378998
0.4940005838871002,0.4926033318042755,0.4979627728462219,0.486109972000122,0.5035638809204102,0.485088974237442,0.495894193649292,0.5276471376419067,0.4829213917255401,0.513260006904602,0.5090957880020142,0.5187643766403198,0.5017536878585815,0.4810782074928283,0.4959670901298523,0.4824460446834564,0.4898709952831268,0.4841390550136566,0.4940228760242462,0.487306535243988,0.4991238117218017,0.4899921417236328,0.5161537528038025,0.5162146687507629,0.4951518774032593,0.4811596870422363,0.5082094073295593,0.4876860380172729,0.4980067014694214,0.4864254295825958,0.5025826692581177,0.4881291687488556,0.4953521490097046,0.5180259943008423,0.5079660415649414,0.4902540743350982,0.4914671778678894,0.487145185470581,0.4824742376804352,0.526182234287262,0.4997783899307251,0.5118739604949951,0.5082732439041138,0.5141661167144775,0.4912413358688354,0.4761824905872345,0.5128646492958069,0.4986340701580047
0.4966050386428833,0.494324117898941,0.5004885792732239,0.4879778921604156,0.5068447589874268,0.4842406511306762,0.4993847608566284,0.5252026915550232,0.4801484942436218,0.5148108601570129,0.5079484581947327,0.5131773948669434,0.5021565556526184,0.4793279469013214,0.4960817098617553,0.489542543888092,0.4871751070022583,0.4852905869483948,0.4939562678337097,0.4873034358024597,0.498818576335907,0.4893191754817962,0.5145200490951538,0.5134415030479431,0.4994356036186218,0.4783093333244324,0.5068615674972534,0.4922509491443634,0.4941281080245971,0.4817138612270355,0.501767098903656,0.4880372285842895,0.4937261939048767,0.5178310871124268,0.5092386603355408,0.4884479343891144,0.4893161952495575,0.4825536012649536,0.4871733784675598,0.5302159190177917,0.5009493231773376,0.5129606127738953,0.507440984249115,0.5221591591835022,0.4883560240268707,0.4807336032390594,0.5120838284492493,0.498851865530014
0.4951983392238617,0.4960885345935821,0.5026791095733643,0.4898743331432342,0.5058748722076416,0.4839011132717132,0.4958269000053406,0.5243117213249207,0.4770908057689667,0.5100409388542175,0.5088227987289429,0.5167760848999023,0.5013198852539062,0.4833216667175293,0.4957281947135925,0.4885165393352508,0.4876274168491363,0.4814560711383819,0.4918790757656097,0.4868353307247162,0.4985291063785553,0.492078959941864,0.5139890909194946,0.5150042176246643,0.4975098669528961,0.4817288517951965,0.5054372549057007,0.4866140782833099,0.4998835623264313,0.48663330078125,0.5010835528373718,0.4849481582641601,0.49461230635643,0.5183337330818176,0.5049312710762024,0.4857977628707886,0.4861476421356201,0.4845857918262481,0.4873766899108886,0.5310471057891846,0.4988740086555481,0.5128114223480225,0.5058727264404297,0.5273277759552002,0.4902497231960296,0.4832848012447357,0.5179759860038757,0.5027623772621155
0.4957336187362671,0.5011077523231506,0.5032487511634827,0.4920943081378937,0.5081544518470764,0.4808396399021148,0.4952395856380462,0.5208668112754822,0.4845186769962311,0.5100404620170593,0.5076302289962769,0.5160886645317078,0.5020981431007385,0.4824253022670746,0.4938677251338959,0.4868325591087341,0.4877591729164123,0.4843858480453491,0.4924428164958954,0.4863558709621429,0.4926278293132782,0.4933889508247375,0.5126595497131348,0.5148754119873047,0.5019621849060059,0.4832477271556854,0.5062400102615356,0.4881506264209747,0.4979636967182159,0.4840990602970123,0.5020202994346619,0.4844836592674255,0.492811769247055,0.514579713344574,0.5115788578987122,0.4817827939987182,0.4911208748817444,0.4881891310214996,0.4857382178306579,0.5303757190704346,0.4988081455230713,0.5075123906135559,0.5057575702667236,0.5306602120399475,0.489677757024765,0.4851749837398529,0.5202843546867371,0.5088193416595459
0.4932977259159088,0.5020071268081665,0.4969226717948913,0.4956629872322082,0.5080283284187317,0.484005331993103,0.4963489770889282,0.5222969055175781,0.4861923158168793,0.511370062828064,0.5021171569824219,0.5158436894416809,0.5001736283302307,0.4859162867069244,0.4936473071575165,0.4889869689941406,0.4885527789592743,0.4837849736213684,0.4952135980129242,0.4863677620887756,0.4985861480236053,0.4871007800102234,0.5100274085998535,0.5136744379997253,0.4995539784431457,0.4830295145511627,0.5059581398963928,0.4883476197719574,0.4997541904449463,0.4849374890327453,0.5006217360496521,0.4826971292495727,0.487245112657547,0.5150801539421082,0.5133523344993591,0.4840076267719269,0.4897216558456421,0.4858826696872711,0.4836133420467376,0.5286070108413696,0.4980864524841308,0.5143740177154541,0.5051942467689514,0.5343979597091675,0.4900474548339844,0.4938315153121948,0.5165160894393921,0.5124791860580444
0.4913236200809479,0.5033766627311707,0.5023584365844727,0.4977731108665466,0.5079086422920227,0.4824810028076172,0.4955902695655823,0.5190901160240173,0.487875372171402,0.508165180683136,0.5050089955329895,0.5110843777656555,0.5011346340179443,0.4882349073886871,0.4914587140083313,0.4895923435688019,0.4854789078235626,0.4833592772483825,0.4966554939746856,0.4816371202468872,0.4967515766620636,0.4922339022159576,0.5087305307388306,0.5139690637588501,0.5058441162109375,0.4828930795192718,0.506338894367218,0.489002913236618,0.4996442198753357,0.4832725822925567,0.4974446296691894,0.482791006565094,0.4932411909103393,0.5146909952163696,0.5126931667327881,0.4844273626804352,0.4888009130954742,0.4863828420639038,0.4830091297626495,0.5260201096534729,0.4962190389633178,0.5132141709327698,0.505883514881134,0.5327154994010925,0.4884422421455383,0.4976919591426849,0.5209186673164368,0.5146602988243103
0.4935466051101684,0.5063841342926025,0.4960081279277801,0.4998206198215484,0.5043348073959351,0.4846327304840088,0.4949307441711426,0.5161535739898682,0.4926554560661316,0.5044180750846863,0.5058892965316772,0.5150614976882935,0.4996203184127807,0.4915666878223419,0.4913409352302551,0.4855355620384216,0.4813966155052185,0.483818918466568,0.5003114938735962,0.4848899245262146,0.4964248538017273,0.4901315867900848,0.5068800449371338,0.5102564096450806,0.5035942792892456,0.4809192717075348,0.5043073892593384,0.4848132729530334,0.497592031955719,0.4855582118034363,0.4955926239490509,0.4809355139732361,0.4925240874290466,0.5124728679656982,0.5146986246109009,0.4828722476959228,0.4923487901687622,0.4861195385456085,0.4847849011421203,0.5242750644683838,0.4963409006595611,0.5144240856170654,0.4987672865390777,0.5390530228614807,0.48774054646492,0.5021561980247498,0.5192599296569824,0.5143433809280396
0.493617296218872,0.5066174864768982,0.4996026456356048,0.5032093524932861,0.5058255791664124,0.4818900823593139,0.4931852519512176,0.5145965218544006,0.4961702227592468,0.5067554116249084,0.5057094693183899,0.5131664872169495,0.5000500679016113,0.4935079216957092,0.4916205108165741,0.4864201247692108,0.4864328801631927,0.4843029677867889,0.4958692491054535,0.4850345253944397,0.4958179593086242,0.4892463088035583,0.5054705739021301,0.5094661712646484,0.5091487169265747,0.4805226922035217,0.5043318867683411,0.4879005551338196,0.4975472390651703,0.4836695492267608,0.4969288408756256,0.4827480614185333,0.4914396107196808,0.5098221302032471,0.5147642493247986,0.4826116859912872,0.4896142482757568,0.4788688719272613,0.4824898540973663,0.5261697769165039,0.4984044730663299,0.5124187469482422,0.5015591382980347,0.538670003414154,0.4895636141300201,0.5116494297981262,0.5119860172271729,0.5186456441879272
0.4933980107307434,0.5100497007369995,0.500318706035614,0.5040236711502075,0.5056694746017456,0.4831781685352325,0.4886009693145752,0.5129130482673645,0.5007169246673584,0.50425785779953,0.5039374232292175,0.5111551880836487,0.5007803440093994,0.496279776096344,0.4887894988059997,0.4855794608592987,0.4809387028217315,0.4830604195594787,0.5033527612686157,0.4822931289672851,0.4940259754657745,0.4886867105960846,0.5042092204093933,0.5110979080200195,0.5094137191772461,0.4804662764072418,0.503857433795929,0.4854103028774261,0.4984761774539947,0.4789649844169616,0.4983800053596496,0.4807579517364502,0.4851724505424499,0.5114947557449341,0.5131381750106812,0.4828858077526092,0.4904625713825226,0.4822318851947784,0.4842164218425751,0.524505615234375,0.4969304502010345,0.5091248154640198,0.5031812191009521,0.5381767153739929,0.4833902716636657,0.5168431401252747,0.5179042220115662,0.5139807462692261
0.4928557872772217,0.5064037442207336,0.5006489157676697,0.5057859420776367,0.5069995522499084,0.4803522527217865,0.4914833307266235,0.511949360370636,0.5095978379249573,0.5025410056114197,0.503639817237854,0.5122015476226807,0.4984107315540313,0.5025621652603149,0.489921361207962,0.485733687877655,0.4843241274356842,0.483450710773468,0.5071852207183838,0.4842019975185394,0.4944862723350525,0.4871776700019836,0.4983584284782409,0.5099002122879028,0.512260913848877,0.4826809763908386,0.5030724406242371,0.4856262505054474,0.49850794672966,0.4813600182533264,0.4952786564826965,0.4808216989040375,0.48993581533432,0.5027998685836792,0.5181174874305725,0.4842697083950043,0.4856952130794525,0.4834214150905609,0.4838615953922272,0.5214852690696716,0.4969587624073028,0.5101233720779419,0.5031739473342896,0.5384286642074585,0.4852378964424133,0.5211217999458313,0.5151115655899048,0.5175555348396301
0.4887205362319946,0.506272554397583,0.5011338591575623,0.5058898329734802,0.5054033398628235,0.4810269176959991,0.4902109503746032,0.5105770826339722,0.5132730603218079,0.5038484334945679,0.5030622482299805,0.508258044719696,0.5004101991653442,0.5079634189605713,0.4887012839317322,0.4817618429660797,0.4850357174873352,0.4841189384460449,0.5070458650588989,0.4843681156635284,0.4959743022918701,0.4869414567947387,0.5021504759788513,0.5073879957199097,0.5106722712516785,0.4849218130111694,0.5001117587089539,0.4841625690460205,0.498227059841156,0.482822448015213,0.4961535930633545,0.481189489364624,0.4895718693733215,0.5072616934776306,0.5172006487846375,0.4839300215244293,0.4891295433044433,0.48057422041893,0.485225111246109,0.5224748849868774,0.4931514859199524,0.5091028809547424,0.5027898550033569,0.5343942046165466,0.4869937300682068,0.524771511554718,0.514277994632721,0.5185511112213135
0.4877217411994934,0.5103126764297485,0.4982641041278839,0.5092432498931885,0.5038638710975647,0.4817440509796142,0.4915418922901153,0.5074816942214966,0.5146998167037964,0.5007400512695312,0.5020745992660522,0.5085940957069397,0.4954998791217804,0.511726438999176,0.4880676567554474,0.4862157702445984,0.4860953986644745,0.483738511800766,0.5078355669975281,0.4843412637710571,0.4884603917598724,0.4853456914424896,0.5011174082756042,0.5064280033111572,0.5093653202056885,0.4859520494937897,0.503341019153595,0.4842328429222107,0.4957719445228576,0.4825704097747803,0.4912883639335632,0.482983261346817,0.4891101717948913,0.5041058659553528,0.5143057703971863,0.4838509857654571,0.4908309578895569,0.4816509485244751,0.4849938154220581,0.5176690816879272,0.4917749464511871,0.5076898336410522,0.5002704858779907,0.5313857197761536,0.4883435666561126,0.5257077217102051,0.5147961974143982,0.5172960758209229
0.489824503660202,0.5073930621147156,0.4983761310577392,0.5078606605529785,0.499350756406784,0.4829162657260895,0.4885433614253998,0.5048006176948547,0.5190452933311462,0.5021339058876038,0.5036054849624634,0.504942774772644,0.497007668018341,0.5133578181266785,0.4873231053352356,0.4866254925727844,0.4825207591056824,0.4822208881378174,0.5111599564552307,0.4839082360267639,0.49197518825531,0.4855822026729584,0.4981894791126251,0.5048843622207642,0.5109750628471375,0.4895009696483612,0.5024749040603638,0.4836600124835968,0.496878832578659,0.4808326661586761,0.4974699914455414,0.4803618788719177,0.4873141050338745,0.5066922903060913,0.5161608457565308,0.4818628132343292,0.4906233251094818,0.4818414747714996,0.4781892299652099,0.5129873156547546,0.4918024837970733,0.5095765590667725,0.5020509958267212,0.5351428985595703,0.4882150888442993,0.5303633213043213,0.5149987936019897,0.5182828903198242
0.4927515089511871,0.5085424184799194,0.500408947467804,0.5093533396720886,0.5039095282554626,0.4808745980262756,0.4887100756168365,0.5059976577758789,0.52105313539505,0.500544011592865,0.5019958019256592,0.5041080713272095,0.4939322173595428,0.5141756534576416,0.4826553463935852,0.4850477874279022,0.4854710102081299,0.4832667410373688,0.5125592350959778,0.482990950345993,0.4926915168762207,0.4864315986633301,0.5003475546836853,0.5017388463020325,0.5102280378341675,0.4907195568084717,0.5030932426452637,0.4838191568851471,0.4963158071041107,0.4826038777828216,0.4942758977413177,0.479788601398468,0.4871862232685089,0.5020496249198914,0.5140315890312195,0.480444997549057,0.4885372519493103,0.4805019199848175,0.4830999076366424,0.5155762434005737,0.4925821423530578,0.5066437721252441,0.5023434162139893,0.5319192409515381,0.4812173843383789,0.5331204533576965,0.5101323127746582,0.5156581997871399
0.4893851578235626,0.5054203271865845,0.5002599954605103,0.5074332356452942,0.5029550194740295,0.4815419614315033,0.4874926805496216,0.5009368062019348,0.5269992351531982,0.4996199607849121,0.5012452602386475,0.5020978450775146,0.4987395703792572,0.5171367526054382,0.4868404865264892,0.4853340685367584,0.4835739135742187,0.4805954396724701,0.5099104642868042,0.4858201742172241,0.4914263188838959,0.4821906387805938,0.4988954663276672,0.5016964673995972,0.5104114413261414,0.4991697371006012,0.5006000995635986,0.4824775457382202,0.4975344538688659,0.4817724227905273,0.4932742416858673,0.4799730181694031,0.4893297255039215,0.5012991428375244,0.5138412714004517,0.480641633272171,0.4862115383148193,0.4803780317306518,0.4808111786842346,0.5147407650947571,0.4898335039615631,0.5039564967155457,0.5034042000770569,0.5313558578491211,0.4871255755424499,0.5313332676887512,0.5098592042922974,0.5159085988998413
0.4908012747764587,0.5086543560028076,0.4930817484855652,0.5105640292167664,0.5032839775085449,0.4799853563308716,0.4885006844997406,0.5012233853340149,0.5268717408180237,0.4925592541694641,0.5007543563842773,0.500316858291626,0.4982340335845947,0.515748918056488,0.4865513741970062,0.4864864647388458,0.4825736284255981,0.4828860461711883,0.5128952860832214,0.4824717342853546,0.4897246360778808,0.4806144535541534,0.4991562366485595,0.5012571215629578,0.5116419792175293,0.5000802278518677,0.5002925992012024,0.4836025238037109,0.4945738315582275,0.4821746945381164,0.492135226726532,0.4795136153697967,0.4886766672134399,0.5015649199485779,0.5163331627845764,0.4824561476707458,0.4880310893058777,0.47970050573349,0.4785779118537903,0.5126086473464966,0.4907809495925903,0.5051137208938599,0.5009785294532776,0.5317516326904297,0.4861625730991363,0.5350882411003113,0.5087369084358215,0.5158838629722595
0.4901165068149566,0.5056137442588806,0.4976788461208343,0.5105300545692444,0.502784788608551,0.4822678864002228,0.4892853498458862,0.5016167163848877,0.5281612277030945,0.4927213788032532,0.4988220334053039,0.5001829266548157,0.4925079941749573,0.5184566378593445,0.4857353270053863,0.4836921691894531,0.4866628050804138,0.4804194271564483,0.512299120426178,0.4829268157482147,0.4923462569713592,0.4835127294063568,0.4958322644233703,0.5000471472740173,0.5115408897399902,0.5046598315238953,0.5007668733596802,0.4815185964107513,0.4952679574489593,0.4821670949459076,0.4922086298465729,0.4822685718536377,0.4870843589305877,0.5022121071815491,0.5165360569953918,0.4813781082630157,0.4886630475521087,0.481176882982254,0.4835929274559021,0.5110033750534058,0.4887363314628601,0.5049523711204529,0.5010355710983276,0.5291726589202881,0.4868838787078857,0.5342276096343994,0.5029541254043579,0.5145099759101868
0.4915214478969574,0.5059574246406555,0.5002148747444153,0.5099042654037476,0.5043420791625977,0.4801467955112457,0.4886547327041626,0.501040518283844,0.5247128009796143,0.4968689382076263,0.500200629234314,0.5006589293479919,0.4975796341896057,0.5186207890510559,0.4865925908088684,0.4832656979560852,0.4884444177150726,0.4811438918113708,0.5121377110481262,0.4839261472225189,0.4910019338130951,0.4830909371376037,0.4970818161964416,0.4995505213737488,0.5108245015144348,0.5073047280311584,0.5028882026672363,0.4824485778808594,0.4926812648773193,0.4817199110984802,0.4912547171115875,0.479022741317749,0.4862867593765259,0.4991908073425293,0.5134857892990112,0.4777907729148865,0.4885708391666412,0.4808006286621094,0.4849762618541717,0.5025959014892578,0.4889826476573944,0.4993666112422943,0.5010502934455872,0.527204692363739,0.4859952330589294,0.526016354560852,0.5059087872505188,0.5142893195152283
0.4900326430797577,0.5057598352432251,0.4989809989929199,0.5058720707893372,0.4998042583465576,0.4828317165374756,0.4883059561252594,0.4942752420902252,0.526497483253479,0.4955256879329681,0.4983778595924377,0.4943906962871551,0.4970573782920837,0.5159540176391602,0.4880411326885223,0.4871081411838531,0.490549236536026,0.4756758213043213,0.5062397122383118,0.4828953146934509,0.4920865297317505,0.4810810089111328,0.4979530572891235,0.4938474893569946,0.5080544948577881,0.510482132434845,0.499782383441925,0.4809475839138031,0.4946921467781067,0.4790068566799164,0.4902417957782745,0.4806192219257355,0.4809195399284363,0.4977706968784332,0.5148845911026001,0.480287104845047,0.4926567375659942,0.4802012145519256,0.4845495820045471,0.5074712634086609,0.4909831881523132,0.4986778795719147,0.4982662200927734,0.5246864557266235,0.488605260848999,0.5299229621887207,0.5051981806755066,0.5150641202926636
0.4886816143989563,0.5074138045310974,0.4995205998420715,0.5081754922866821,0.4982758462429046,0.4778981208801269,0.4893566966056824,0.5002904534339905,0.5284880995750427,0.4956144690513611,0.496934562921524,0.4979996681213379,0.4946011304855346,0.5158679485321045,0.4858710467815399,0.4885289967060089,0.4944089651107788,0.4830416142940521,0.5106166005134583,0.47990682721138,0.4883878529071808,0.4808560907840729,0.4968690872192383,0.4990284740924835,0.5036482214927673,0.5094457864761353,0.5018240809440613,0.4810224175453186,0.4908000528812408,0.4865685701370239,0.489331305027008,0.478903204202652,0.4859000742435455,0.5011196732521057,0.5160782933235168,0.4779594242572784,0.4961956143379211,0.4818859100341797,0.4892897605895996,0.5041297078132629,0.486675351858139,0.5003924369812012,0.4998358488082886,0.5252593159675598,0.4932775795459747,0.5324290990829468,0.5046612024307251,0.5157538652420044
0.4892774820327759,0.5065345168113708,0.4990913569927215,0.5094615817070007,0.4985806941986084,0.4806186258792877,0.4863394796848297,0.4967160820960998,0.5233350992202759,0.4889641404151916,0.49852454662323,0.4971173107624054,0.4961031675338745,0.5152620673179626,0.4845812916755676,0.4874284863471985,0.4998029768466949,0.4863521158695221,0.5105655789375305,0.4786881804466247,0.4903354048728943,0.4820292294025421,0.4945386350154876,0.4989889860153198,0.5084960460662842,0.5074147582054138,0.50095134973526,0.4816319942474365,0.4961382448673248,0.489045649766922,0.4922787845134735,0.476609855890274,0.4860431849956512,0.4975928664207458,0.5139907598495483,0.4762479662895202,0.4943430423736572,0.4821266531944275,0.4939228892326355,0.5052088499069214,0.4899868965148926,0.5000525712966919,0.4958493411540985,0.5246289968490601,0.4939883351325989,0.5325383543968201,0.4997383952140808,0.5135263800621033
0.488028347492218,0.5065295696258545,0.4961698651313782,0.5088661313056946,0.5018308758735657,0.4755432307720184,0.4868941307067871,0.4948721528053283,0.518111526966095,0.4926255643367767,0.4969877898693084,0.4950725436210632,0.4967301189899444,0.5178868174552917,0.4842991530895233,0.4874972105026245,0.5018258094787598,0.4820833504199981,0.5082259774208069,0.4823702871799469,0.4887917041778564,0.479956567287445,0.494830846786499,0.4917938709259033,0.5076239705085754,0.5121934413909912,0.4944979548454284,0.4773000478744507,0.4903328120708465,0.4885419011116028,0.4882219135761261,0.4798924028873443,0.4840176403522491,0.4951575994491577,0.5122210383415222,0.477984070777893,0.4985349178314209,0.4798839688301086,0.4961979985237121,0.5028431415557861,0.4877957701683044,0.4990305602550506,0.4966987371444702,0.5185878276824951,0.5003412365913391,0.5269284844398499,0.5011795163154602,0.5135093927383423
0.4884704649448395,0.5032975077629089,0.4947631061077118,0.506531298160553,0.5021094083786011,0.4815553724765777,0.4866801500320434,0.494553804397583,0.5218364596366882,0.4935271441936493,0.4971545934677124,0.4969183206558227,0.4941177070140838,0.5178670287132263,0.4856749475002289,0.4887001812458038,0.507736086845398,0.4908570051193237,0.5077175498008728,0.4839454591274261,0.4900989830493927,0.481658011674881,0.4966138005256653,0.4914420545101166,0.5075682997703552,0.5133584141731262,0.4984312951564789,0.4800975024700165,0.4947441518306732,0.4984491169452667,0.4898229539394378,0.4799765646457672,0.4850198924541473,0.5008342266082764,0.513555645942688,0.4784604012966156,0.5016341209411621,0.4800520241260528,0.502221405506134,0.5045961737632751,0.4858021140098572,0.4960208535194397,0.4977136552333832,0.5169574618339539,0.5024574995040894,0.5274515151977539,0.5003362894058228,0.5100453495979309
0.4877776205539703,0.5057510137557983,0.4966630339622497,0.5064173340797424,0.5019992589950562,0.4800854921340942,0.4865759015083313,0.4963159561157226,0.5249138474464417,0.4930062294006347,0.4932217895984649,0.4966851472854614,0.4932091534137726,0.5099974870681763,0.484243243932724,0.4851694107055664,0.5057302713394165,0.4945988357067108,0.511199951171875,0.4827812612056732,0.4911496043205261,0.4800282418727875,0.4911015331745147,0.4942105710506439,0.5062058568000793,0.5151012539863586,0.5006648302078247,0.4824336767196655,0.4963411092758178,0.5025238394737244,0.4838814735412597,0.4781191349029541,0.4849095642566681,0.4926458597183227,0.5124509334564209,0.4794565439224243,0.5020093321800232,0.4810342192649841,0.5071561932563782,0.5042587518692017,0.4886131882667541,0.4964672029018402,0.4962671995162964,0.5160993933677673,0.5047240853309631,0.5286402702331543,0.4996784031391144,0.5076026916503906
0.4873149693012237,0.5055030584335327,0.4983402490615845,0.5083496570587158,0.5019823312759399,0.4811004996299743,0.4862474799156189,0.4957879781723022,0.5213276147842407,0.4901138842105865,0.4943457245826721,0.4953885078430176,0.4949311912059784,0.5147325396537781,0.4848140776157379,0.485431432723999,0.5163881182670593,0.5019552707672119,0.5100297927856445,0.479476124048233,0.4890130460262298,0.48285773396492,0.4941366016864776,0.4954124689102173,0.5056220889091492,0.5119054913520813,0.4980858862400055,0.4797714054584503,0.4921978414058685,0.5059012770652771,0.483990728855133,0.478711873292923,0.4855129718780517,0.4960960149765014,0.5105803608894348,0.4740689694881439,0.504964292049408,0.4807861745357513,0.5122867822647095,0.5036054253578186,0.4859364032745361,0.4966640472412109,0.4966369271278381,0.5075626969337463,0.5046879649162292,0.5229790806770325,0.4984352886676788,0.5074455142021179
0.490121454000473,0.5043705105781555,0.4972188174724579,0.5062322020530701,0.4961601495742798,0.4815419614315033,0.4854679405689239,0.4955789446830749,0.5212104916572571,0.4895624220371246,0.4982845187187195,0.4942483007907867,0.4958161413669586,0.5147544741630554,0.4858197867870331,0.4869311451911926,0.5202748775482178,0.5082577466964722,0.5076771974563599,0.484128326177597,0.4876664876937866,0.4813643991947174,0.49418705701828,0.4950000345706939,0.5054711103439331,0.5129795074462891,0.4975891411304474,0.4817662835121155,0.4944808781147003,0.5118005275726318,0.4881682693958282,0.4747846722602844,0.4851919710636139,0.497025191783905,0.5082370042800903,0.4774596095085144,0.5063878893852234,0.4817668199539184,0.5173701643943787,0.4980970025062561,0.4855101406574249,0.497015118598938,0.4943315982818603,0.5095340609550476,0.5136246681213379,0.5217337012290955,0.4922674894332886,0.5057420134544373
0.4923405051231384,0.5030254125595093,0.4952698647975921,0.5067230463027954,0.4958926439285278,0.4833192527294159,0.4869829416275024,0.4909820854663849,0.5202290415763855,0.4898034334182739,0.4967602789402008,0.4917511641979217,0.4956836998462677,0.511780321598053,0.4855628907680511,0.4845756888389587,0.5213944911956787,0.5050331354141235,0.5079429745674133,0.4851773083209991,0.4901846051216125,0.4811669886112213,0.4897168576717376,0.4928627014160156,0.5010138154029846,0.507587730884552,0.4985698759555816,0.4759545624256134,0.4897812604904175,0.5168553590774536,0.4879105687141418,0.4772863984107971,0.4857154190540313,0.4970711469650268,0.51020747423172,0.4794279038906097,0.5044707655906677,0.4750791490077972,0.5198658108711243,0.4976544380187988,0.4871489703655243,0.4943373799324035,0.4926816821098327,0.5104662775993347,0.5161150097846985,0.5154497027397156,0.4947234392166137,0.505715012550354
0.4935347139835357,0.5003350377082825,0.4947253167629242,0.5049053430557251,0.5028644800186157,0.4840165674686432,0.4835425317287445,0.4926240146160126,0.5195322036743164,0.4885967373847961,0.4941018521785736,0.4932402968406677,0.4907733201980591,0.5139991641044617,0.4887539446353912,0.4875120222568512,0.5237995982170105,0.5136986970901489,0.5082269310951233,0.4858259558677673,0.4893751442432403,0.4809314906597137,0.4889995455741882,0.4923690557479858,0.5062077045440674,0.5111796855926514,0.4974653720855713,0.4786680042743683,0.494442343711853,0.5205349922180176,0.4862768054008484,0.4772555530071258,0.4893757998943329,0.4984060227870941,0.5089693069458008,0.4789879918098449,0.5031421780586243,0.4783723056316376,0.5238523483276367,0.4980263411998749,0.4862349331378937,0.493645578622818,0.4939931631088257,0.5074124336242676,0.5199589729309082,0.5188935995101929,0.4973461031913757,0.500834584236145
0.4978887736797333,0.5006527900695801,0.4950819611549377,0.5041190981864929,0.5001017451286316,0.4867832958698272,0.4875423908233642,0.4856261312961578,0.5144144296646118,0.487543523311615,0.4979439079761505,0.4925021231174469,0.4942828118801117,0.5101145505905151,0.4896329045295715,0.4899288415908813,0.5255845785140991,0.5181277990341187,0.5084329843521118,0.491584837436676,0.4872915744781494,0.4813819229602813,0.4909814894199371,0.4916385412216186,0.5051535964012146,0.5109524130821228,0.4969911277294159,0.4799154102802276,0.4927065074443817,0.524204671382904,0.4850769937038421,0.4795489013195038,0.4884503781795501,0.4950138330459595,0.5092682242393494,0.4792179763317108,0.5083227157592773,0.4800417721271515,0.5266061425209045,0.5010601878166199,0.4842281937599182,0.4935832023620605,0.4887339472770691,0.5036970973014832,0.5139399170875549,0.5171788930892944,0.4978184401988983,0.495805412530899
0.5034511089324951,0.5014205574989319,0.4961928129196167,0.5049909949302673,0.5005910396575928,0.4930765032768249,0.4869199693202972,0.4917497336864471,0.5134403109550476,0.4866566956043243,0.4979498088359833,0.4906825125217438,0.4925567209720611,0.5045971870422363,0.4907910227775574,0.4893520474433899,0.5244231820106506,0.5218236446380615,0.5060198903083801,0.4943661987781524,0.4882199466228485,0.4814636707305908,0.4878233671188354,0.4921071529388428,0.5029018521308899,0.5096726417541504,0.4975753128528595,0.4764080941677093,0.4933110773563385,0.5257498621940613,0.4869175553321838,0.4814255237579345,0.4941015243530273,0.4960184097290039,0.5089827179908752,0.4777614176273346,0.5084584951400757,0.4799392819404602,0.5277208685874939,0.4988990426063537,0.4864803850650787,0.492876261472702,0.4923132359981537,0.5060902237892151,0.521277904510498,0.5177648663520813,0.4947974383831024,0.5010327696800232
0.5051785111427307,0.4984557628631592,0.4972021281719208,0.4972051084041595,0.4972757399082184,0.4970673322677612,0.4894964694976806,0.4894612729549408,0.5151723623275757,0.4864449799060821,0.4965325593948364,0.48845174908638,0.493130087852478,0.5097603797912598,0.4980117082595825,0.4876940846443176,0.5258561968803406,0.5232486724853516,0.5063247084617615,0.4967316091060638,0.4843653738498688,0.4821423888206482,0.4876599907875061,0.4914440214633941,0.5037612915039062,0.508061408996582,0.4996824562549591,0.4798274040222168,0.494071751832962,0.5248187780380249,0.4852081537246704,0.4816154241561889,0.4970792531967163,0.4946328103542328,0.5083253979682922,0.4792672991752624,0.5066850185394287,0.4766910076141357,0.5277491211891174,0.4919686615467071,0.4860336184501648,0.4925854504108429,0.4929414689540863,0.5033383965492249,0.5222868919372559,0.5123347640037537,0.4914859235286712,0.5015761852264404
0.5064907073974609,0.5010130405426025,0.4941818416118622,0.501491904258728,0.5002647638320923,0.5027233958244324,0.4884772300720215,0.4881102740764618,0.5100963115692139,0.4867648482322693,0.4978425502777099,0.4899141490459442,0.493763267993927,0.5090659856796265,0.499319314956665,0.4961575865745544,0.526121199131012,0.5242177248001099,0.5069416165351868,0.4991607666015625,0.4884711503982544,0.4808461368083954,0.4901940524578094,0.4907447099685669,0.505137026309967,0.5089513659477234,0.4972071945667267,0.4848414957523346,0.4901525378227234,0.5237020254135132,0.4844387173652649,0.4845010340213775,0.500390887260437,0.4942688047885895,0.5096820592880249,0.4777556955814361,0.507588803768158,0.4833860099315643,0.5257853865623474,0.4982098340988159,0.4857528209686279,0.4909391403198242,0.4921498894691467,0.5032904744148254,0.5209718942642212,0.5125410556793213,0.496483564376831,0.4985049366950989
0.5117007493972778,0.4998178482055664,0.4966793060302734,0.5005967617034912,0.4943000972270965,0.5073530673980713,0.494558572769165,0.4890143573284149,0.5087753534317017,0.4836860299110412,0.4975779950618744,0.487659752368927,0.492107093334198,0.5072646141052246,0.4997271597385406,0.4982331991195678,0.5263913869857788,0.5244538187980652,0.505185604095459,0.5017071962356567,0.4883306324481964,0.4760657846927643,0.4862741827964782,0.4903875291347503,0.4987333118915558,0.5072888135910034,0.4944122731685638,0.4869115650653839,0.4934128820896148,0.5253747701644897,0.4870136082172394,0.4862794578075409,0.5059350728988647,0.4946717023849487,0.5080121755599976,0.4772039651870727,0.507915735244751,0.4863066375255584,0.5265275239944458,0.4924086332321167,0.4863731861114502,0.4927156865596771,0.4922210872173309,0.5040028095245361,0.5201005339622498,0.5087722539901733,0.4967840611934662,0.495935320854187
0.5124856233596802,0.4985109567642212,0.4959606826305389,0.5017200112342834,0.497610479593277,0.5112082958221436,0.4984195530414581,0.486682116985321,0.508916974067688,0.4815657436847687,0.4990963339805603,0.4882040321826935,0.4912647902965545,0.5076708197593689,0.5083388686180115,0.496004194021225,0.5212210416793823,0.5220874547958374,0.5048511028289795,0.4998126327991485,0.4875959157943725,0.4800564050674438,0.4876220524311065,0.4854978024959564,0.5028653144836426,0.504718542098999,0.5002820491790771,0.4898277521133423,0.4926105737686157,0.5250830054283142,0.4838583469390869,0.4895441234111786,0.5089720487594604,0.4911670684814453,0.5012195110321045,0.4777694344520569,0.5074875950813293,0.4925599098205566,0.5254044532775879,0.4952968060970306,0.4853161573410034,0.490237832069397,0.4916762411594391,0.5010940432548523,0.5215434432029724,0.5085241794586182,0.4917937815189361,0.4955002963542938
0.5164527893066406,0.5000579953193665,0.4960379898548126,0.4986509084701538,0.4970607757568359,0.5083558559417725,0.5020684599876404,0.4854647517204284,0.5053861737251282,0.4828746020793915,0.4987408518791199,0.4895899891853332,0.4954365491867065,0.5066313743591309,0.5127849578857422,0.5023089647293091,0.5183020830154419,0.524282693862915,0.5025158524513245,0.5057805180549622,0.4840742945671081,0.4754784703254699,0.4881600141525268,0.4904780387878418,0.5024856328964233,0.5053696036338806,0.4958694875240326,0.4919316470623016,0.4920641183853149,0.5183795094490051,0.4843288064002991,0.4963409900665283,0.5127617120742798,0.4922965764999389,0.5053391456604004,0.4775139689445495,0.5075080394744873,0.4979194700717926,0.5276393294334412,0.4944179952144623,0.4863173961639404,0.4914965629577636,0.491484671831131,0.498135358095169,0.5232077240943909,0.5078172087669373,0.498026579618454,0.4969535171985626
0.5164391398429871,0.4998239278793335,0.4967814981937408,0.4989924132823944,0.4971896409988403,0.515386700630188,0.5040029883384705,0.4838413894176483,0.5030624270439148,0.4836641252040863,0.4976338744163513,0.4870910942554474,0.4949961900711059,0.5008145570755005,0.5161121487617493,0.5057490468025208,0.5250748991966248,0.5203343033790588,0.5023529529571533,0.5050190091133118,0.4829061627388,0.4795851409435272,0.4858735501766205,0.4885984659194946,0.5029605627059937,0.503883957862854,0.4938496947288513,0.494566261768341,0.4953687489032745,0.5240791440010071,0.483180969953537,0.5011680722236633,0.5183837413787842,0.4889938533306122,0.5057578682899475,0.4788906276226043,0.5065898299217224,0.5054599642753601,0.5283890962600708,0.4921257197856903,0.4849647879600525,0.4863957166671753,0.4909853935241699,0.4970681965351105,0.5209802389144897,0.5063886642456055,0.4958938062191009,0.4941373169422149
0.5165892839431763,0.5002861022949219,0.4969173073768616,0.4969176352024078,0.5004485249519348,0.521658718585968,0.5107588768005371,0.4819116294384002,0.5005083680152893,0.4809976816177368,0.4986171126365661,0.4850189983844757,0.4917633831501007,0.5020689368247986,0.5207042098045349,0.5105567574501038,0.5233948826789856,0.5185646414756775,0.503511905670166,0.5040308833122253,0.4860351681709289,0.4836311042308807,0.4865711033344269,0.484900027513504,0.5018689036369324,0.4980304837226867,0.4968449175357818,0.4972058236598968,0.4927521049976349,0.5222815871238708,0.4863210618495941,0.5055916905403137,0.5209925770759583,0.4907897710800171,0.5038588047027588,0.4802547693252563,0.5035564303398132,0.5099422335624695,0.5255525708198547,0.492527961730957,0.4844453334808349,0.4912794232368469,0.4905547201633453,0.5001696944236755,0.5195539593696594,0.4976955056190491,0.4939563274383545,0.493297278881073
0.5180759429931641,0.4983473122119903,0.4988086819648742,0.4939298331737518,0.5001034140586853,0.5229522585868835,0.5114727020263672,0.4781402945518493,0.4986126720905304,0.4807671904563904,0.4959718883037567,0.4850266277790069,0.4916455745697021,0.5030769109725952,0.518159806728363,0.5078468322753906,0.5226378440856934,0.5205968022346497,0.5031290054321289,0.5087348222732544,0.4893139004707336,0.4864993989467621,0.483293354511261,0.488461434841156,0.501603901386261,0.4995352923870086,0.4989380240440368,0.5010754466056824,0.493095189332962,0.5233555436134338,0.4863082766532898,0.5089656114578247,0.5153585076332092,0.4911125898361206,0.5054140686988831,0.4830738306045532,0.5045082569122314,0.5120590925216675,0.5217631459236145,0.4897095263004303,0.4840549230575561,0.4871607422828674,0.4889218807220459,0.4986396729946136,0.519014298915863,0.5000807642936707,0.4885339438915252,0.4960580170154571
0.515367329120636,0.496319055557251,0.5039843320846558,0.4966283440589905,0.4959742724895477,0.5239359736442566,0.5141611099243164,0.4830315709114074,0.5039461851119995,0.4811696410179138,0.4920254945755005,0.4843959808349609,0.4919265508651733,0.5007380843162537,0.5153053402900696,0.5109956860542297,0.5189212560653687,0.521348237991333,0.5035923719406128,0.508215069770813,0.4882450997829437,0.4890993237495422,0.4790294766426086,0.485188364982605,0.4998993575572967,0.5020416975021362,0.4970982372760772,0.5021656155586243,0.4919634759426117,0.5201154351234436,0.4839960932731628,0.5127883553504944,0.5244207382202148,0.4839444756507873,0.5049174427986145,0.4884245097637176,0.5071717500686646,0.5199053287506104,0.5219520330429077,0.4896004498004913,0.4807267487049103,0.4889653921127319,0.4852760136127472,0.4983342885971069,0.5191994905471802,0.4954035878181457,0.4929527938365936,0.4929104447364807
0.513020396232605,0.5001506805419922,0.5049610733985901,0.4967564046382904,0.4968518316745758,0.525006115436554,0.5145186185836792,0.4829027652740478,0.5028874278068542,0.4818442463874817,0.4962294995784759,0.4820366501808166,0.4931840002536773,0.498517245054245,0.5185462832450867,0.510682225227356,0.5194913744926453,0.5200110077857971,0.5022512674331665,0.5090186595916748,0.4899736046791076,0.4966154396533966,0.4854369759559631,0.4871662557125091,0.5023688673973083,0.5005703568458557,0.4960576891899109,0.5063918828964233,0.4942071139812469,0.5176156163215637,0.4863623976707458,0.5189341306686401,0.5238234400749207,0.4863648116588592,0.5057145953178406,0.4902274012565613,0.5055664777755737,0.5222752690315247,0.5211901068687439,0.490051120519638,0.4885722696781158,0.4882916510105133,0.4897684752941131,0.4972195029258728,0.5201087594032288,0.4975307583808899,0.4934095740318298,0.4934311509132385
0.5151842832565308,0.4959675669670105,0.5063345432281494,0.4906215965747833,0.4961778521537781,0.5229633450508118,0.5168169736862183,0.4828029572963714,0.5028617978096008,0.4795035719871521,0.4921026527881622,0.4815959632396698,0.4916577935218811,0.5003986358642578,0.5167482495307922,0.5085247159004211,0.5208280682563782,0.5115401148796082,0.5042743682861328,0.5091457366943359,0.4944552779197693,0.5014925599098206,0.4855091571807861,0.4840049743652344,0.5034490823745728,0.499438464641571,0.4961294531822204,0.5071109533309937,0.4941158592700958,0.5153740644454956,0.4852896630764007,0.5190268158912659,0.5252279043197632,0.4903000891208648,0.5034248232841492,0.4961018860340118,0.504737377166748,0.5253360867500305,0.518733024597168,0.4904772341251373,0.4913648664951324,0.4852447509765625,0.487137496471405,0.4937402009963989,0.5172927975654602,0.5009885430335999,0.4887540340423584,0.4928943216800689
0.5148341059684753,0.4978508353233337,0.5048419237136841,0.494317352771759,0.4974979758262634,0.5241661667823792,0.5192578434944153,0.4815581738948822,0.4989483058452606,0.4776600003242492,0.4935705959796905,0.4828961789608001,0.4885159730911255,0.500650942325592,0.5225982069969177,0.5109408497810364,0.515734851360321,0.5162649154663086,0.5011458992958069,0.5035039782524109,0.4962885677814483,0.5057076215744019,0.4845819771289825,0.4852659106254577,0.4980050027370453,0.4980520009994507,0.4974067211151123,0.5065426230430603,0.4958361089229584,0.5181400179862976,0.4796256721019745,0.5215991139411926,0.521747350692749,0.4877973198890686,0.4984182119369507,0.4990207254886627,0.4983835518360138,0.529104471206665,0.5194224119186401,0.4846271574497223,0.4925636649131775,0.4881351292133331,0.4845666885375976,0.4937195777893066,0.5159196257591248,0.4985258877277374,0.4917533993721008,0.4932325780391693
0.5138556957244873,0.4965018630027771,0.5077437162399292,0.4955869913101196,0.4972418844699859,0.524652361869812,0.5207046270370483,0.4798895418643951,0.4974883198738098,0.4811110198497772,0.4970115721225738,0.4806820452213287,0.4906647801399231,0.500588595867157,0.5160914063453674,0.5037471055984497,0.5153452157974243,0.5150637030601501,0.5007011890411377,0.5075027346611023,0.4999425709247589,0.5131610631942749,0.4822129607200622,0.4857811331748962,0.5040123462677002,0.4951834678649902,0.4955183863639831,0.5085909366607666,0.4970605373382568,0.515170156955719,0.482793241739273,0.5220592021942139,0.5208945870399475,0.487571507692337,0.503757119178772,0.5049649477005005,0.504329264163971,0.5301474332809448,0.517795741558075,0.4853364527225494,0.4975582659244537,0.4856803119182586,0.4891186654567718,0.4957261681556701,0.5167239308357239,0.4961499273777008,0.4906779825687408,0.4935504496097564
0.5133557319641113,0.4971208274364471,0.5102997422218323,0.4945823848247528,0.4969682097434997,0.5229631662368774,0.5181018114089966,0.4793358147144317,0.4999157190322876,0.4808377623558044,0.4956730902194977,0.4790112674236297,0.4912601709365845,0.497182697057724,0.520147979259491,0.5107939839363098,0.5126584768295288,0.5078009963035583,0.5025178790092468,0.5088933706283569,0.4996755123138428,0.5143430233001709,0.482770174741745,0.4808668792247772,0.5018178224563599,0.4959109425544739,0.4952709972858429,0.5088706612586975,0.4953247010707855,0.5133628845214844,0.4832002222537994,0.5215899348258972,0.5233926773071289,0.487209290266037,0.5023991465568542,0.50803142786026,0.5040307641029358,0.5269790887832642,0.5152335166931152,0.4858895242214203,0.5038634538650513,0.4860720932483673,0.4892036914825439,0.4933560192584991,0.5143337249755859,0.4980560541152954,0.4879761934280395,0.4935155510902405
0.5130232572555542,0.4982880055904388,0.5111922025680542,0.4941999316215515,0.4948967397212982,0.5205493569374084,0.5223205089569092,0.4811252951622009,0.4965744018554687,0.4808542430400848,0.4907022416591644,0.4811860024929046,0.4928174912929535,0.4991106688976288,0.5139644742012024,0.5071355104446411,0.515573263168335,0.5085462927818298,0.5036511421203613,0.5090070366859436,0.5019132494926453,0.5139085054397583,0.4819629788398742,0.4845386743545532,0.5012063980102539,0.4951104521751404,0.4958719611167907,0.508094847202301,0.5037078857421875,0.5115540623664856,0.4856017529964447,0.5221638083457947,0.5222099423408508,0.487100601196289,0.4999516308307647,0.50510573387146,0.5014028549194336,0.5297507047653198,0.5131986737251282,0.4850807785987854,0.5074273347854614,0.4852221310138702,0.4895947873592376,0.4913327395915985,0.5107453465461731,0.499095618724823,0.4877263903617859,0.4918239116668701
0.5148035883903503,0.4945497214794159,0.5089271664619446,0.4927548170089721,0.4947435557842254,0.5200533866882324,0.5211623907089233,0.4803164899349212,0.4976375699043274,0.4800615012645721,0.4930926561355591,0.478423148393631,0.4912362098693847,0.4917604923248291,0.5198261737823486,0.5058113932609558,0.5139224529266357,0.509717583656311,0.5022628903388977,0.5086111426353455,0.5088106989860535,0.524029016494751,0.4813444018363952,0.4819987118244171,0.497099757194519,0.4969153106212616,0.4970566928386688,0.5053943395614624,0.5048295855522156,0.5101701021194458,0.4844966232776642,0.52532958984375,0.5179288983345032,0.4864580333232879,0.5020802021026611,0.5128765106201172,0.4993250668048858,0.5283880829811096,0.5120114684104919,0.4858231842517853,0.5110118985176086,0.4848850965499878,0.4905883967876434,0.4886366724967956,0.5086396932601929,0.4984380602836609,0.488353431224823,0.491891473531723
0.5114455223083496,0.4958062767982483,0.5087091326713562,0.4920123517513275,0.4965715706348419,0.5226022601127625,0.5197138786315918,0.4787797331809997,0.4984598159790039,0.4771569371223449,0.495151549577713,0.4780141413211822,0.4903520047664642,0.4946364462375641,0.5182628631591797,0.5063368082046509,0.5045305490493774,0.5089933276176453,0.5032696723937988,0.5069170594215393,0.5047852993011475,0.5238752961158752,0.4795750379562378,0.4779096245765686,0.5005849003791809,0.4942967891693115,0.4951160550117492,0.5094249844551086,0.5055418014526367,0.5071010589599609,0.4823922514915466,0.5250274538993835,0.516951322555542,0.4839482009410858,0.4952634274959564,0.5145946145057678,0.5008669495582581,0.5281060338020325,0.512091875076294,0.4844069480895996,0.5142478346824646,0.4791930019855499,0.4903049170970917,0.4848810136318207,0.5080594420433044,0.4966150820255279,0.4874625504016876,0.4912411570549011
0.5137409567832947,0.493808776140213,0.5120543837547302,0.4917117059230804,0.4944624602794647,0.5212714672088623,0.5139379501342773,0.4798010587692261,0.4973475337028503,0.478105217218399,0.4935842752456665,0.4780096709728241,0.4882664680480957,0.4963835179805755,0.5156653523445129,0.5084393620491028,0.5081722736358643,0.5052675604820251,0.5004372596740723,0.5057662129402161,0.5104553699493408,0.5264880657196045,0.4818967282772064,0.4829169809818268,0.4995179176330566,0.4931852519512176,0.4933717250823974,0.5069277882575989,0.5040006041526794,0.5057826042175293,0.4790955781936645,0.5234218835830688,0.5173823237419128,0.4841028749942779,0.4994632005691528,0.5145192742347717,0.5013381242752075,0.5275892019271851,0.5078027844429016,0.4831132888793945,0.515085756778717,0.4801471531391144,0.4905432164669037,0.4907176494598388,0.5075716376304626,0.4968374371528625,0.486611545085907,0.4888714551925659
0.5098456144332886,0.4886173903942108,0.5130054950714111,0.4939412176609039,0.4959633946418762,0.5211280584335327,0.5142369270324707,0.4792237281799316,0.4977593421936035,0.472685158252716,0.49382483959198,0.4767931699752807,0.4957312643527984,0.4972741603851318,0.5156536102294922,0.5011687278747559,0.5085259079933167,0.5057531595230103,0.5004135370254517,0.5056633949279785,0.5142187476158142,0.524997353553772,0.4828677773475647,0.4797840118408203,0.5011867880821228,0.4939077496528625,0.4949696958065033,0.5096036791801453,0.5047733187675476,0.5070107579231262,0.4804292917251587,0.5212070941925049,0.515407383441925,0.4832633137702942,0.5007922649383545,0.5192599892616272,0.5008642673492432,0.5253608822822571,0.5049965977668762,0.4852860271930694,0.5193198919296265,0.482997864484787,0.4889034926891327,0.4877494871616363,0.5092231631278992,0.4927682876586914,0.4858746528625488,0.4891832768917084
0.5119156241416931,0.4961191415786743,0.5079365968704224,0.4917933344841003,0.4975518882274627,0.5187974572181702,0.5193384289741516,0.4799352884292602,0.4922430515289306,0.4783107936382293,0.4938801229000091,0.478837788105011,0.4957617819309234,0.4959224760532379,0.5148096084594727,0.5066843032836914,0.5092182755470276,0.4985925257205963,0.5008601546287537,0.5040133595466614,0.5115159153938293,0.5283024907112122,0.4797967970371246,0.4806785881519317,0.4993560910224914,0.4933956861495971,0.4934414029121399,0.509484052658081,0.5064107775688171,0.5037502646446228,0.4798546731472015,0.5222361087799072,0.512644350528717,0.4845143556594848,0.4991083145141601,0.518846869468689,0.4991500079631805,0.5233650803565979,0.5037006139755249,0.4829395413398742,0.5221902132034302,0.4832867085933685,0.4972042143344879,0.4871357679367065,0.5063668489456177,0.4957498908042907,0.4863529801368713,0.4892250597476959
0.5115886926651001,0.492822527885437,0.5047656893730164,0.4867528676986694,0.4961897432804107,0.5185430645942688,0.5159190893173218,0.4776292145252228,0.4956356883049011,0.4781408309936523,0.4920804798603058,0.4785108864307403,0.4998695254325866,0.4900504052639007,0.5081602931022644,0.50446617603302,0.5069310069084167,0.4989699125289917,0.4957571625709533,0.5051602125167847,0.5134231448173523,0.529423713684082,0.4807780981063843,0.4800239503383636,0.5003389120101929,0.4951313734054565,0.4906709790229797,0.5054340958595276,0.5069758296012878,0.5016525387763977,0.4817804396152496,0.5182697176933289,0.5144911408424377,0.4839700162410736,0.4984639585018158,0.5186230540275574,0.5017145276069641,0.5239481329917908,0.5033913850784302,0.4816736578941345,0.5207493901252747,0.4840291142463684,0.49977508187294,0.4880160093307495,0.5036059021949768,0.4920655488967895,0.4850485026836395,0.4877208769321441
0.5118787288665771,0.4930956065654754,0.5117098093032837,0.4915078282356262,0.4964530766010284,0.5151978731155396,0.5188207030296326,0.4785752296447754,0.4958267509937286,0.4762528538703918,0.493427574634552,0.475703626871109,0.5013218522071838,0.4913664758205414,0.5093011856079102,0.5067055225372314,0.5056825876235962,0.5035893321037292,0.5021671652793884,0.5039898157119751,0.5119786262512207,0.5277724266052246,0.4798116385936737,0.4837555885314941,0.4981974363327026,0.4928404688835144,0.4945649802684784,0.5061107277870178,0.5082695484161377,0.5024124383926392,0.4818693995475769,0.5191176533699036,0.5106677412986755,0.4861631095409393,0.4985056221485138,0.51941978931427,0.4947948753833771,0.523906946182251,0.5021842122077942,0.4842838048934936,0.5183383226394653,0.483842521905899,0.5051533579826355,0.4833269119262695,0.5031476616859436,0.4909660816192627,0.486196756362915,0.4810590445995331
0.5082230567932129,0.495050847530365,0.5107329487800598,0.4883397221565246,0.4943475723266601,0.5165441036224365,0.5148405432701111,0.477143794298172,0.4934838712215423,0.4760481119155884,0.4943632483482361,0.4779156446456909,0.5028268694877625,0.4926666021347046,0.5109687447547913,0.5044503808021545,0.5046343803405762,0.5004802346229553,0.4991626441478729,0.5028200745582581,0.5137985348701477,0.5276455283164978,0.478297084569931,0.4821802973747253,0.5005385279655457,0.4909186661243438,0.4942174255847931,0.5067543983459473,0.5046114325523376,0.4992517530918121,0.4851996302604675,0.5161044001579285,0.5080065131187439,0.48483407497406,0.4985547959804535,0.5190741419792175,0.5000391006469727,0.5207093358039856,0.504409670829773,0.482276052236557,0.5231738090515137,0.4806576073169708,0.5066676139831543,0.4849073886871338,0.5023077726364136,0.4908549785614013,0.4861446917057037,0.4867248833179474
0.5101404786109924,0.4931119680404663,0.5110478401184082,0.489464521408081,0.4910685420036316,0.5150561928749084,0.5160223245620728,0.4731601476669311,0.490283191204071,0.476803570985794,0.4931700527667999,0.4756026566028595,0.5035822987556458,0.4922055006027221,0.5070860981941223,0.5018527507781982,0.5029969811439514,0.5005890727043152,0.4967090487480163,0.5035151243209839,0.5131374597549438,0.5245984196662903,0.486049622297287,0.4820477664470672,0.4989146888256073,0.4922811985015869,0.4934389889240265,0.5011834502220154,0.5051089525222778,0.5007167458534241,0.4827554523944855,0.5180772542953491,0.5048779249191284,0.4850931167602539,0.4996978044509887,0.5151720643043518,0.5016568899154663,0.5193394422531128,0.5007703900337219,0.4821993708610534,0.5221178531646729,0.481463223695755,0.5113601684570312,0.4837808907032013,0.5030010938644409,0.4905133247375488,0.4839078485965729,0.4857629537582397
0.5067514181137085,0.4918971955776214,0.5124644041061401,0.4907315969467163,0.4947845637798309,0.5137139558792114,0.5154800415039062,0.4776792526245117,0.4918628931045532,0.4766322076320648,0.4930395185947418,0.4726172089576721,0.5058225989341736,0.4921134412288666,0.5072301626205444,0.503455638885498,0.5036278367042542,0.495768129825592,0.4993733167648315,0.499907910823822,0.5103808045387268,0.5195621252059937,0.4889303147792816,0.4815631806850433,0.4945445954799652,0.4900089502334595,0.4942589700222015,0.5048941969871521,0.5057510137557983,0.496609479188919,0.4839594960212707,0.5157291889190674,0.5081953406333923,0.4851692318916321,0.4972698092460632,0.5186017751693726,0.499937891960144,0.5115742087364197,0.5005289316177368,0.4843713641166687,0.5223841667175293,0.4808721244335174,0.5145178437232971,0.4835332632064819,0.501875102519989,0.4910106956958771,0.4848383069038391,0.4854810535907745
0.510235607624054,0.4942233562469482,0.5042168498039246,0.4875801205635071,0.490470290184021,0.5106712579727173,0.5116585493087769,0.4722440242767334,0.4848474264144897,0.4712978601455688,0.4934022426605224,0.4754087924957275,0.5084536075592041,0.4908544421195984,0.5056187510490417,0.5030704736709595,0.5037760138511658,0.4977032840251922,0.4983040988445282,0.5016939043998718,0.511481523513794,0.5252969264984131,0.4933139085769653,0.476573497056961,0.4979574978351593,0.4862568080425262,0.4896280765533447,0.5026918649673462,0.5041428208351135,0.501107931137085,0.4862886667251587,0.5169541835784912,0.5054447054862976,0.4842657744884491,0.4932281672954559,0.5169002413749695,0.4999420642852783,0.515734851360321,0.5013446807861328,0.4831686317920685,0.5198361277580261,0.4803828299045563,0.516671359539032,0.478449285030365,0.499896377325058,0.4903320670127868,0.4824965596199035,0.4856261014938354
0.5069889426231384,0.494901567697525,0.5104516744613647,0.489622414112091,0.4958013594150543,0.5083154439926147,0.5091162919998169,0.4786753058433532,0.4883210957050323,0.4787271618843078,0.4907276630401611,0.4720081984996795,0.5094858407974243,0.4902895987033844,0.5069002509117126,0.5034053325653076,0.502325713634491,0.4927564561367035,0.4983415603637695,0.5006063580513,0.5085951685905457,0.5211469531059265,0.4969798922538757,0.4795216619968414,0.4983120262622833,0.4867390394210815,0.495202898979187,0.5019259452819824,0.5036263465881348,0.4984850585460663,0.4886933863162994,0.5132890343666077,0.4980524480342865,0.4858159720897674,0.4979780316352844,0.5139543414115906,0.4990154504776001,0.511132001876831,0.4986019134521484,0.4838365018367767,0.5147867202758789,0.4808047413825989,0.5172551274299622,0.483235239982605,0.5011510252952576,0.48581463098526,0.4853528439998626,0.4817958176136017
0.503987193107605,0.4937585294246673,0.510262131690979,0.4885163903236389,0.4967750310897827,0.5094574689865112,0.511381983757019,0.4721497595310211,0.4869170188903808,0.4771631360054016,0.4932366609573364,0.4777098298072815,0.5110561847686768,0.4898166060447693,0.4988049864768982,0.5031973123550415,0.5025571584701538,0.4982324838638305,0.4986034035682678,0.4991723895072937,0.5117747783660889,0.5236174464225769,0.5033537149429321,0.4812999963760376,0.4973649084568023,0.4877866804599762,0.4933256506919861,0.5019282698631287,0.5036559700965881,0.4994317293167114,0.4909842610359192,0.5102494359016418,0.5016605854034424,0.4824387431144714,0.4942525327205658,0.5152126550674438,0.4990597069263458,0.5112742185592651,0.5001833438873291,0.4803369045257568,0.5181836485862732,0.4817090332508087,0.5199341773986816,0.4821240305900574,0.500175416469574,0.4871848523616791,0.4839761257171631,0.4831966161727905
0.508376955986023,0.4943361282348633,0.510465145111084,0.4880365133285522,0.4953921139240265,0.5060972571372986,0.5046650171279907,0.4770665764808655,0.4850836992263794,0.4771007001399994,0.4946058690547943,0.4756207466125488,0.5099644064903259,0.4878029525279999,0.5048586130142212,0.5014156699180603,0.4988291263580322,0.4985344111919403,0.4968962371349334,0.4983705878257751,0.5095203518867493,0.5189386010169983,0.5054208040237427,0.4812934398651123,0.4999879896640777,0.4884265065193176,0.4939125478267669,0.5012555718421936,0.5039724707603455,0.4999202489852905,0.4935789406299591,0.511082649230957,0.5003930330276489,0.4842508137226105,0.4962125718593597,0.5137528777122498,0.5013312697410583,0.5110586285591125,0.5010895729064941,0.4809309244155884,0.5201019644737244,0.4785360097885132,0.5211424827575684,0.4822200238704681,0.4980649948120117,0.4868610203266144,0.4801582098007202,0.4823648035526275
0.5038243532180786,0.4913193583488464,0.5095143914222717,0.4872597455978393,0.500679075717926,0.5068593621253967,0.507283627986908,0.4779760837554931,0.487788051366806,0.4784192442893982,0.4944875240325928,0.4742506444454193,0.5083534717559814,0.4878331124782562,0.5017425417900085,0.5003733038902283,0.4985039532184601,0.4918996691703796,0.4945122897624969,0.4959620237350464,0.5096109509468079,0.5189984440803528,0.5096806287765503,0.480661392211914,0.498628169298172,0.4877567291259765,0.4898464381694793,0.4990864098072052,0.5050010085105896,0.4980413019657135,0.4970201849937439,0.5031411051750183,0.4988526701927185,0.483673095703125,0.4966782629489898,0.5130636692047119,0.4999678134918213,0.5076096653938293,0.5001925826072693,0.4807792007923126,0.5173396468162537,0.4813052713871002,0.5214082598686218,0.4791873395442962,0.4998653531074524,0.4856607019901275,0.4849310517311096,0.4826067388057709
0.5069354176521301,0.4929178357124328,0.50962895154953,0.4876070618629455,0.5016478896141052,0.5065510869026184,0.5059769749641418,0.4771565198898315,0.487481951713562,0.4765018820762634,0.4940883219242096,0.4760266244411468,0.509756863117218,0.4894251227378845,0.4993983805179596,0.4984351992607116,0.4992458820343017,0.4986329674720764,0.4975139796733856,0.4992209374904632,0.5084142088890076,0.5144017934799194,0.516595184803009,0.4810365438461303,0.4932546317577362,0.4874109327793121,0.49245285987854,0.4973928928375244,0.502676248550415,0.4985236227512359,0.5021352767944336,0.509404182434082,0.5014229416847229,0.4823509752750397,0.4954763352870941,0.5067844390869141,0.499224841594696,0.5039815306663513,0.4974501729011535,0.4794073402881622,0.5193518996238708,0.4802629649639129,0.523325502872467,0.4784817099571228,0.4986360073089599,0.4831640124320984,0.4835026562213897,0.4799838662147522
0.503216028213501,0.491065502166748,0.5070101618766785,0.4880864918231964,0.5031064748764038,0.5022475123405457,0.506377100944519,0.4741147756576538,0.4877195656299591,0.4754994511604309,0.49329474568367,0.4759009182453155,0.5100597739219666,0.4868853092193603,0.5002294182777405,0.4971981942653656,0.4935265183448791,0.4965902864933014,0.4985643625259399,0.4954468011856079,0.5076117515563965,0.5186423063278198,0.5189364552497864,0.479590505361557,0.496696799993515,0.4867706000804901,0.4923403263092041,0.4966103136539459,0.4981002807617187,0.4955118298530578,0.5055446028709412,0.5052419304847717,0.4987971484661102,0.4836321175098419,0.494078516960144,0.5110163688659668,0.4993950128555298,0.5046089291572571,0.4982969164848327,0.4803324341773987,0.5173053741455078,0.4788677990436554,0.5209890007972717,0.4806772172451019,0.4984855949878692,0.4832884967327118,0.4824546873569488,0.4792406857013702
0.5061106085777283,0.4928311109542846,0.505032479763031,0.4864140450954437,0.4993849098682403,0.5038701891899109,0.5054652094841003,0.4774614870548248,0.4849105775356293,0.475521981716156,0.4995715916156769,0.4746885895729065,0.5092906355857849,0.4848656952381134,0.498445600271225,0.4968508183956146,0.5004056692123413,0.4965920746326446,0.4919762909412384,0.4944531321525574,0.5079253911972046,0.5128661394119263,0.5221343040466309,0.474853366613388,0.4931325614452362,0.4858069717884063,0.4937706887722015,0.4924070835113525,0.5026883482933044,0.4983186721801758,0.5085645318031311,0.5037392377853394,0.5014070868492126,0.4821973145008087,0.4937194585800171,0.5097878575325012,0.5003472566604614,0.5040774345397949,0.4975014925003052,0.4824510514736175,0.5095817446708679,0.4800885915756225,0.5152069926261902,0.4815201163291931,0.4979617595672607,0.4817745387554168,0.4829221367835998,0.4814127683639526
0.5057838559150696,0.4907617568969726,0.5078681111335754,0.4867308735847473,0.5018607378005981,0.5040581822395325,0.5027675628662109,0.4760792851448059,0.4839543998241424,0.4761682748794555,0.5016003847122192,0.4758484363555908,0.5082883238792419,0.4868142008781433,0.4983941316604614,0.4972822666168213,0.4987486600875854,0.4935471713542938,0.4983185827732086,0.494479775428772,0.502040445804596,0.5139543414115906,0.5250542163848877,0.4803809225559234,0.4982118308544159,0.4827296435832977,0.4943960905075073,0.4950643479824066,0.5003339052200317,0.4977615475654602,0.5114459991455078,0.5033326148986816,0.5000978708267212,0.4845436215400696,0.4921391904354095,0.5063619017601013,0.4976203441619873,0.5027139782905579,0.4972114861011505,0.4796218574047088,0.5143955945968628,0.4744762480258941,0.5211792588233948,0.4792539775371551,0.497039794921875,0.4819972217082977,0.4809543490409851,0.4791616201400757
0.5062393546104431,0.4892838895320892,0.5076095461845398,0.4861434996128082,0.5075656771659851,0.4960871636867523,0.5033513903617859,0.4755879044532776,0.4850532412528991,0.474143236875534,0.5047282576560974,0.4757620990276336,0.5084187388420105,0.4874959886074066,0.500014066696167,0.4936889708042145,0.496232658624649,0.4941653609275818,0.4942303597927093,0.4950945675373077,0.5057904124259949,0.5070676207542419,0.5259528756141663,0.4745576083660126,0.4983133375644684,0.4836417138576507,0.4912233650684356,0.4946082830429077,0.5014299154281616,0.4931993186473846,0.5103715658187866,0.5030473470687866,0.4951058328151703,0.4823364317417145,0.4943545758724212,0.5068314075469971,0.4980854988098144,0.5028632283210754,0.4966574609279632,0.4817806780338287,0.5132271647453308,0.4794572591781616,0.5208296179771423,0.4800287187099457,0.4961678087711334,0.4806950986385345,0.4825164377689361,0.4779805243015289
0.5062837600708008,0.4931124150753021,0.5069900155067444,0.4833856523036957,0.5091014504432678,0.5014392137527466,0.500621497631073,0.4764546751976013,0.4839027225971222,0.4711207151412964,0.5049065351486206,0.4766732454299927,0.5030062794685364,0.4870092868804931,0.4969635009765625,0.4985045194625854,0.4954966008663177,0.4949856996536255,0.4922617673873901,0.4912971258163452,0.5049473643302917,0.5103538036346436,0.5233596563339233,0.4811620414257049,0.4980249404907226,0.4844056665897369,0.4935362040996551,0.4954716265201568,0.5027216076850891,0.4949959814548492,0.5137553215026855,0.5031944513320923,0.4989065825939178,0.4803771376609802,0.4954741299152374,0.5034531950950623,0.4978227913379669,0.501100480556488,0.4960553646087646,0.4816650748252868,0.5098854303359985,0.4775266349315643,0.5182766318321228,0.4780975580215454,0.4901525676250458,0.4829343557357788,0.48594531416893,0.4790730774402618
0.5043376088142395,0.489250123500824,0.5083258748054504,0.4838640689849853,0.507352352142334,0.5010085105895996,0.5026988387107849,0.4770520031452179,0.4831624627113342,0.4773106276988983,0.5074350833892822,0.4741319119930267,0.5093610286712646,0.4841589629650116,0.4963054955005646,0.4980073869228363,0.4959875047206878,0.4930055439472198,0.4956007003784179,0.4908203482627868,0.5049571990966797,0.5058433413505554,0.5261024236679077,0.4785228967666626,0.4967640936374664,0.4835525453090668,0.4919635653495788,0.4935608208179474,0.5011189579963684,0.4912334382534027,0.5134677290916443,0.4994831681251526,0.4969651997089386,0.4801941812038421,0.4940802454948425,0.5060486793518066,0.4962553381919861,0.501752495765686,0.4938173294067383,0.4814188182353973,0.509058952331543,0.4798310995101928,0.521302342414856,0.4812100231647491,0.4948665797710418,0.4814559519290924,0.4903556108474731,0.4789800643920898
0.5045770406723022,0.4892479479312897,0.5004028677940369,0.4845668077468872,0.5103268027305603,0.5006338953971863,0.4999575912952423,0.4766987264156341,0.4798352718353271,0.4826657474040985,0.508118212223053,0.4730067849159241,0.5082612037658691,0.4862764179706573,0.4984432160854339,0.4984131753444671,0.4941419959068298,0.4934999942779541,0.4952667653560638,0.4972912967205047,0.505489706993103,0.505561113357544,0.5259876251220703,0.4794218838214874,0.4972015619277954,0.4848952889442444,0.4933648109436035,0.4940934479236603,0.498587965965271,0.4911773204803467,0.5150343775749207,0.4998002648353576,0.4974095523357391,0.4807364642620086,0.4949516057968139,0.5014196634292603,0.4957695305347442,0.5002787113189697,0.49164018034935,0.4825711250305176,0.5076350569725037,0.4784209430217743,0.5178909301757812,0.4793286621570587,0.494149386882782,0.4791314303874969,0.4931791126728058,0.474845677614212
0.5033543109893799,0.4911893606185913,0.5052334666252136,0.4851219058036804,0.5091726779937744,0.4979573488235473,0.5010364651679993,0.4752575755119324,0.4840176403522491,0.4843979477882385,0.50660240650177,0.4734688401222229,0.5073471069335938,0.4834345579147339,0.4992945790290832,0.500099778175354,0.4950160086154938,0.4932223260402679,0.4932712316513061,0.4964570105075836,0.5025237798690796,0.5065879821777344,0.5188831090927124,0.4779568612575531,0.4952161610126495,0.4845722913742065,0.4926108717918396,0.4929476976394653,0.5000159740447998,0.4919842779636383,0.5142471194267273,0.4969475865364074,0.4985877275466919,0.4807113111019134,0.4940817952156067,0.4996899962425232,0.497160792350769,0.4970853626728058,0.4877977669239044,0.4786850810050964,0.5069830417633057,0.4790726602077484,0.5182361006736755,0.4790169298648834,0.4892331063747406,0.481153130531311,0.4969186782836914,0.4795729219913482
0.5050824880599976,0.4922108352184295,0.5056180357933044,0.4829619526863098,0.5089302659034729,0.4969158768653869,0.4998131692409515,0.4747988283634186,0.4835767447948456,0.4889861941337585,0.5064206123352051,0.4745271503925323,0.5054619908332825,0.4828406274318695,0.4986335039138794,0.4971545338630676,0.4915942251682281,0.4934366941452026,0.4943993687629699,0.4965672791004181,0.4999537765979767,0.5003930330276489,0.5245512127876282,0.4788107573986053,0.4955825805664062,0.4822947382926941,0.4937285780906677,0.4934858083724975,0.4998255968093872,0.4919417798519134,0.515857994556427,0.5004119277000427,0.4974887669086456,0.4828869700431824,0.4966342449188232,0.5001864433288574,0.496423065662384,0.5002681016921997,0.4931094646453857,0.4807350039482116,0.5004827976226807,0.4789415895938873,0.519399106502533,0.4794695377349853,0.4928077161312103,0.4806152582168579,0.497414618730545,0.4803877472877502
0.503190815448761,0.4844448268413543,0.5053286552429199,0.4861990511417389,0.5057887434959412,0.4971343576908111,0.5002316832542419,0.4719783067703247,0.4832792282104492,0.4963171780109405,0.5086429715156555,0.4745139181613922,0.5059354901313782,0.4834173917770386,0.4969155490398407,0.4960662126541137,0.4921866059303283,0.4930726885795593,0.4962620735168457,0.4926473498344421,0.5028035044670105,0.5015460848808289,0.5240074396133423,0.4784683287143707,0.496339738368988,0.4820036888122558,0.4925656914710998,0.4919449687004089,0.4987503886222839,0.4897562861442566,0.5150101780891418,0.4981027245521545,0.4949909150600433,0.4817556738853454,0.4976254403591156,0.5020508170127869,0.4956530034542084,0.497492104768753,0.4929382801055908,0.4817720949649811,0.5039287209510803,0.47671839594841,0.5154616832733154,0.4785100817680359,0.4873165786266327,0.4780808389186859,0.501592218875885,0.4769097864627838
0.5031309127807617,0.4921820759773254,0.5033400058746338,0.4795528054237366,0.5121182203292847,0.4984383881092071,0.4977253973484039,0.4748602509498596,0.4821825623512268,0.5018946528434753,0.5076345205307007,0.4749562740325928,0.5012930631637573,0.4784292876720428,0.4943531155586242,0.4969183206558227,0.4924516975879669,0.4920360445976257,0.4945466816425323,0.4937518239021301,0.5034130215644836,0.4999872744083404,0.521568775177002,0.4795364737510681,0.497900128364563,0.4811663925647735,0.4960227012634277,0.4931016266345978,0.500902533531189,0.4889394044876098,0.5141316056251526,0.495331346988678,0.4939734935760498,0.4837201833724975,0.5000588297843933,0.4948971271514892,0.4967159628868103,0.4979365468025207,0.4877903163433075,0.4794715940952301,0.5043514966964722,0.4796156585216522,0.5121994018554688,0.4786833822727203,0.491194874048233,0.4804164171218872,0.511326253414154,0.4810535907745361
0.5029370188713074,0.4905753433704376,0.5051617622375488,0.4820604622364044,0.5104027390480042,0.4968509078025818,0.4989277124404907,0.4744922816753387,0.4838331639766693,0.5034224390983582,0.5043616890907288,0.4762257933616638,0.5009502172470093,0.4818671643733978,0.4944555461406708,0.4996021389961242,0.4900025427341461,0.4895913004875183,0.4918819665908813,0.4897951185703277,0.5011425614356995,0.5028313994407654,0.5233365893363953,0.4802477657794952,0.4989786744117737,0.4798321723937988,0.4955280423164367,0.4914339780807495,0.4991037547588348,0.4864703416824341,0.5149011611938477,0.497267484664917,0.4897032082080841,0.487569123506546,0.5029280781745911,0.4974415600299835,0.4956793189048767,0.49197718501091,0.4902319312095642,0.4796314537525177,0.5045176148414612,0.4732047319412231,0.5144646763801575,0.4789533913135528,0.4911228120326996,0.4788255393505096,0.5116193890571594,0.4804700314998626
0.4992153942584991,0.4918651580810547,0.5050009489059448,0.4816482365131378,0.5089871883392334,0.4946180284023285,0.4965293109416961,0.4745363295078277,0.4805776178836822,0.510134756565094,0.5100065469741821,0.4784948527812958,0.5001652836799622,0.4834111630916595,0.4954983592033386,0.4969627559185028,0.4919953942298889,0.4888058602809906,0.4949350953102112,0.4913129806518554,0.5021308660507202,0.4986706674098968,0.5175673365592957,0.4816900193691253,0.4942766427993774,0.4804446399211883,0.4968060851097107,0.4906327724456787,0.4975005090236664,0.4892643392086029,0.5136204957962036,0.4967168271541595,0.4949061572551727,0.4860066771507263,0.507269024848938,0.4963898658752441,0.4961395263671875,0.4965279102325439,0.4903494417667389,0.4789130985736847,0.5027279257774353,0.4781761765480041,0.5104238986968994,0.4786883592605591,0.4884623885154724,0.4786664247512817,0.5173699259757996,0.4775599539279938
0.5013984441757202,0.4855233430862427,0.5034424662590027,0.4823862016201019,0.5109421610832214,0.4950102567672729,0.4953771233558655,0.4773326218128204,0.4780736565589905,0.5137094855308533,0.5097389817237854,0.4775556623935699,0.5041924715042114,0.482573926448822,0.4927773773670196,0.4954253435134887,0.4900057315826416,0.4881773591041565,0.495591253042221,0.4876847863197326,0.5020126700401306,0.4983177185058594,0.5217661261558533,0.4797228276729584,0.502513587474823,0.4805170893669128,0.5015392899513245,0.4926281571388244,0.5006081461906433,0.4870271384716034,0.5151355862617493,0.4958579838275909,0.4946896135807037,0.491547018289566,0.5103403925895691,0.4963314533233642,0.4923800230026245,0.4961434006690979,0.4897672832012176,0.4787940084934234,0.4991917312145233,0.4730853140354156,0.511631965637207,0.4788911938667297,0.4891716837882995,0.4775690138339996,0.5199319124221802,0.4803256392478943
0.4927279651165008,0.4912813603878021,0.5050227642059326,0.4846134185791015,0.5090077519416809,0.493145227432251,0.4934844374656677,0.4783335030078888,0.480598896741867,0.5154111385345459,0.5068482756614685,0.4817579388618469,0.5031458735466003,0.4814601838588714,0.492954820394516,0.4977872371673584,0.4841023981571197,0.4876596927642822,0.4947181940078735,0.4905252158641815,0.5019538998603821,0.4984351694583893,0.5164543390274048,0.4890954494476318,0.5024634599685669,0.4779840409755707,0.5008404850959778,0.4899681210517883,0.4994715452194214,0.4832170605659485,0.5074931979179382,0.4914474189281463,0.4919075667858124,0.4925568699836731,0.5137912631034851,0.4957257509231567,0.4897635579109192,0.4907715618610382,0.4875515401363373,0.4820882678031921,0.4990579485893249,0.4726961255073547,0.5113481283187866,0.4790491461753845,0.4878987967967987,0.4799852073192596,0.521924614906311,0.4782253801822662
0.5001999735832214,0.4907165467739105,0.5028517246246338,0.4850319623947143,0.5096493363380432,0.4909383058547973,0.4906113147735595,0.4786886274814605,0.4827876389026642,0.518572211265564,0.5059900283813477,0.4910123348236084,0.503860592842102,0.4814487099647522,0.4913581013679504,0.4950060546398163,0.4893801808357239,0.4874741733074188,0.4953866004943847,0.49244225025177,0.5036242604255676,0.4988226592540741,0.5145546197891235,0.490153431892395,0.5013967156410217,0.4810201525688171,0.4993075132369995,0.4862928092479706,0.4984992444515228,0.4840013682842254,0.5123423337936401,0.494236946105957,0.4884032607078552,0.498021513223648,0.5148103833198547,0.4959593415260315,0.494613379240036,0.4925330579280853,0.4888192415237427,0.4822007119655609,0.4978293776512146,0.4743279814720154,0.5101292133331299,0.4798823893070221,0.489869624376297,0.4790914952754974,0.5208403468132019,0.4787808656692505
0.4971431493759155,0.4897043108940124,0.5039327144622803,0.4839284718036651,0.5100127458572388,0.4923881888389587,0.4935087859630584,0.4857577085494995,0.4793503880500793,0.5165702700614929,0.50616455078125,0.4940904080867767,0.5014743804931641,0.4819237291812897,0.4897589981555938,0.4942061007022857,0.4881493747234344,0.4858379960060119,0.4897111654281616,0.4927859604358673,0.5027506351470947,0.4978357255458832,0.5165872573852539,0.4956398606300354,0.5064398646354675,0.4792825579643249,0.5036104917526245,0.4893146455287933,0.4999165534973144,0.4872670173645019,0.5123388171195984,0.4953140020370483,0.4930883944034576,0.5009632110595703,0.5125088095664978,0.4961253404617309,0.4924303591251373,0.4884863495826721,0.4848054945468902,0.4832127690315246,0.4996918141841888,0.4782642126083374,0.5075997710227966,0.4768454730510711,0.4863869845867157,0.4779109954833984,0.5216197371482849,0.477758526802063
0.4978340268135071,0.4908407330513,0.5030173659324646,0.4831520020961761,0.5095027089118958,0.4924916326999664,0.4950574040412903,0.4924850165843963,0.4876839518547058,0.5117495656013489,0.5013572573661804,0.4965752065181732,0.4991106688976288,0.4820930063724518,0.4916836023330688,0.4940635561943054,0.4864698350429535,0.4836382865905761,0.493176132440567,0.4906089007854461,0.5010722875595093,0.4951812922954559,0.5162844657897949,0.5008761882781982,0.508876383304596,0.480713427066803,0.5064073204994202,0.4887480139732361,0.4988909363746643,0.4846785068511963,0.5106453895568848,0.4920531511306762,0.49195396900177,0.5039722919464111,0.5179532766342163,0.4896517097949981,0.4932842254638672,0.4909521043300628,0.4878090322017669,0.4896887540817261,0.4994111359119415,0.4766683578491211,0.5071167945861816,0.4786900877952575,0.4875090420246124,0.4776791036128998,0.5220491886138916,0.4778952598571777
0.4973468482494354,0.4904787242412567,0.5017068386077881,0.4828864634037018,0.5110387206077576,0.4884799420833587,0.4927273690700531,0.4963304698467254,0.489567220211029,0.5149082541465759,0.5048515796661377,0.5032122135162354,0.500619113445282,0.4819047152996063,0.488117903470993,0.4934581518173218,0.4855606853961944,0.4837822318077087,0.4956565797328949,0.4901905953884125,0.5003999471664429,0.4939548671245575,0.5138526558876038,0.501290500164032,0.5065436959266663,0.4814763069152832,0.5075404047966003,0.4873194992542267,0.4988054633140564,0.4844364523887634,0.5037523508071899,0.490618497133255,0.4909743070602417,0.5055798292160034,0.5159309506416321,0.4912521243095398,0.4941871166229248,0.4886787831783294,0.4845296740531921,0.4902636110782623,0.500210702419281,0.4786027073860168,0.5050504803657532,0.4766177535057068,0.485071986913681,0.4755822420120239,0.5235950350761414,0.4752096533775329
0.4930908977985382,0.4894390702247619,0.5029543042182922,0.4831039011478424,0.5079774856567383,0.4895741045475006,0.4919089376926422,0.5040256381034851,0.4957322478294372,0.5186161994934082,0.5066961050033569,0.504828929901123,0.5015338063240051,0.4770158529281616,0.4897615611553192,0.4962092041969299,0.4865776896476745,0.4810952246189117,0.4933389127254486,0.4899795651435852,0.5002492070198059,0.4977762997150421,0.5129439234733582,0.5027284026145935,0.5120794773101807,0.4791052341461181,0.5056701898574829,0.4873346984386444,0.498985230922699,0.4838790893554687,0.5064690113067627,0.4907743632793426,0.4890068173408508,0.5090315341949463,0.5194991230964661,0.4928063750267029,0.4924239218235016,0.4917173087596893,0.4840035736560821,0.4947545528411865,0.4984489679336548,0.4775460362434387,0.5052458047866821,0.4800962209701538,0.4869588613510132,0.4801298975944519,0.5238447785377502,0.477075845003128
0.4972946047782898,0.4897869527339935,0.5012564659118652,0.4813703596591949,0.5072628259658813,0.48836550116539,0.4938022494316101,0.5099031925201416,0.4995518624782562,0.5159317851066589,0.5051167607307434,0.508495569229126,0.5041980147361755,0.4823015034198761,0.4903159737586975,0.4930973052978515,0.4875137209892273,0.4853363335132599,0.4956683218479156,0.4882160425186157,0.4994899928569793,0.4967492222785949,0.5095626711845398,0.5084644556045532,0.5143784880638123,0.4792802035808563,0.5049022436141968,0.4879527390003204,0.4996454119682312,0.4795650541782379,0.5088487267494202,0.4891278445720672,0.4895689785480499,0.5071524977684021,0.5180169343948364,0.493683248758316,0.4928911626338959,0.4907054901123047,0.4823701083660126,0.501764178276062,0.4963504076004028,0.4806265532970428,0.504635751247406,0.4729406237602234,0.4854008555412292,0.4785812199115753,0.5207261443138123,0.475840151309967
0.497829794883728,0.4870385229587555,0.5006958842277527,0.477539598941803,0.5078705549240112,0.4889498054981231,0.491856038570404,0.5105234980583191,0.5063321590423584,0.5159376263618469,0.5063380599021912,0.5089009404182434,0.5037014484405518,0.4817049503326416,0.48721644282341,0.4942879676818847,0.4860483109951019,0.4829639494419098,0.4949059188365936,0.4843526184558868,0.4997235536575317,0.495915800333023,0.5082964897155762,0.5089181661605835,0.5137053728103638,0.4789629876613617,0.5077252388000488,0.4830947816371918,0.4973057210445404,0.4822700619697571,0.5070720911026001,0.487399697303772,0.4868562221527099,0.51078861951828,0.5200868248939514,0.4940356612205505,0.49169921875,0.4893006384372711,0.4861811399459839,0.5077542662620544,0.4967069327831268,0.4776241481304168,0.5039525032043457,0.4779860377311706,0.4878705143928528,0.4778298437595367,0.5225464701652527,0.4780232310295105
0.4935625791549682,0.4904128015041351,0.5030898451805115,0.4794261455535888,0.5034923553466797,0.4885020852088928,0.4917106330394745,0.5164945125579834,0.5047608613967896,0.5171663165092468,0.504669189453125,0.5096234083175659,0.4969819784164428,0.4820912480354309,0.4861767888069153,0.4950656294822693,0.4883299767971039,0.4815985262393951,0.4957241714000702,0.4884305596351623,0.5009355545043945,0.4943471848964691,0.5065329670906067,0.5080556273460388,0.5097015500068665,0.4788042306900024,0.5082008838653564,0.4865806102752685,0.4969185292720794,0.4819063544273376,0.5057382583618164,0.4886108040809631,0.4861942231655121,0.510188639163971,0.5197027325630188,0.4918083548545837,0.4928368031978607,0.4882742762565613,0.4825371205806732,0.5138174891471863,0.4985197186470032,0.4863373339176178,0.4993584752082824,0.4778430461883545,0.4868886470794678,0.479275107383728,0.519216775894165,0.4795515537261963
0.4937472641468048,0.487017273902893,0.5022053718566895,0.4824011325836181,0.5076882243156433,0.4867123663425445,0.4917833209037781,0.5200207233428955,0.516231894493103,0.5172565579414368,0.5023317337036133,0.5121572613716125,0.500101625919342,0.4810586273670196,0.4875365495681762,0.4940959811210632,0.4865806698799133,0.4829263985157013,0.4973780214786529,0.4884350895881653,0.4976629614830017,0.49314084649086,0.5048879384994507,0.5033299922943115,0.5143953561782837,0.4797515869140625,0.5072992444038391,0.4853710830211639,0.498973935842514,0.4809556007385254,0.5012426376342773,0.4879234731197357,0.4866283535957336,0.5105768442153931,0.519658625125885,0.4884344935417175,0.4910691976547241,0.4854559004306793,0.4824945032596588,0.5157092809677124,0.4956908822059631,0.4890747666358948,0.5017496943473816,0.4774672389030456,0.4863634407520294,0.47638800740242,0.51907879114151,0.4827080965042114
0.4895809590816498,0.4872325658798218,0.4957240223884582,0.4801572859287262,0.5076795816421509,0.485454648733139,0.4893558919429779,0.5216487646102905,0.5202247500419617,0.5115846991539001,0.4979818165302276,0.5095078945159912,0.5018911361694336,0.4826286435127258,0.4825426340103149,0.4898834824562073,0.4874859750270843,0.4825941324234009,0.5004236102104187,0.4866443276405334,0.4975270926952362,0.4920113384723663,0.504785418510437,0.5101260542869568,0.5131915211677551,0.4800307750701904,0.5064908862113953,0.4857616126537323,0.4974938631057739,0.4805539548397064,0.5047784447669983,0.4871921241283417,0.4842012226581573,0.5097243189811707,0.5183565020561218,0.4905577301979065,0.4909493625164032,0.4872064888477325,0.4837073385715484,0.5222867727279663,0.4971803724765777,0.492083877325058,0.5058166980743408,0.4770624041557312,0.4861653447151184,0.4774196147918701,0.5190960764884949,0.4806178212165832
0.4919187128543854,0.491237998008728,0.5010189414024353,0.4815141856670379,0.5059979557991028,0.48823943734169,0.487606793642044,0.5225898623466492,0.5172092914581299,0.5156809091567993,0.5018371939659119,0.5109582543373108,0.4995748102664947,0.4791502356529236,0.4871545433998108,0.4917938411235809,0.4874849021434784,0.4842507839202881,0.5020107626914978,0.4882856905460357,0.497763842344284,0.4859629869461059,0.5030367374420166,0.5107108354568481,0.5145285725593567,0.4787325263023376,0.5079752206802368,0.4851228594779968,0.4993976056575775,0.4776195287704468,0.501872718334198,0.4847876727581024,0.485278844833374,0.5076813101768494,0.5198359489440918,0.4894210696220398,0.4872021675109863,0.4859328269958496,0.4819225966930389,0.5221987962722778,0.4955297410488128,0.4956891238689422,0.5033288598060608,0.4767481982707977,0.4838801026344299,0.4782622456550598,0.5169932246208191,0.4893760681152344
0.4955953061580658,0.4937072098255157,0.5016252398490906,0.4810393154621124,0.505036473274231,0.4850801229476928,0.4864421486854553,0.5266301035881042,0.524665355682373,0.5137971043586731,0.5019235014915466,0.513077437877655,0.4998162388801574,0.4756909608840942,0.4861428141593933,0.4939093887805938,0.4837740361690521,0.4799679517745971,0.5041563510894775,0.4855222105979919,0.4956487417221069,0.4915747344493866,0.5028755068778992,0.5082940459251404,0.5126725435256958,0.4779856503009796,0.5053071975708008,0.4865683913230896,0.4965578913688659,0.4800817966461181,0.5015130639076233,0.4857417345046997,0.4855689406394958,0.510446310043335,0.5205293893814087,0.4890422224998474,0.4908165633678436,0.4869742095470428,0.4807190597057342,0.5275204181671143,0.4901900291442871,0.4990472197532654,0.500995934009552,0.4786974191665649,0.4844522774219513,0.4781031608581543,0.5168729424476624,0.4942894876003265
0.4912987649440765,0.4882558286190033,0.4947400093078613,0.4826328754425049,0.5062651634216309,0.4843970835208893,0.4863017201423645,0.5235404372215271,0.5254817008972168,0.5118045806884766,0.5026175379753113,0.5106343626976013,0.500313401222229,0.4758477807044983,0.4874361455440521,0.4940218925476074,0.4831855893135071,0.4807371497154236,0.5078607797622681,0.4872020781040191,0.494651734828949,0.4845227599143982,0.4989820122718811,0.509601354598999,0.5142658352851868,0.4778979420661926,0.5049667358398438,0.485453337430954,0.4962034225463867,0.4805413484573364,0.5005193948745728,0.4856258928775787,0.4861440658569336,0.508773922920227,0.5183573961257935,0.4865687489509582,0.4902031123638153,0.4846294224262237,0.4816852509975433,0.5270043015480042,0.4912578165531158,0.4954573810100555,0.5035526156425476,0.4846379458904266,0.4833808243274688,0.4789241552352905,0.5102229714393616,0.4973799288272857
0.4946080446243286,0.4966591894626617,0.4984939694404602,0.4820088148117065,0.505989134311676,0.4841569066047668,0.4879493117332458,0.5239686965942383,0.5254989862442017,0.5146670937538147,0.4996714890003204,0.5109514594078064,0.4996236860752105,0.4810774028301239,0.4842024445533752,0.4936655461788177,0.4860242009162903,0.482179582118988,0.5097771883010864,0.4884524345397949,0.4937480092048645,0.4875774979591369,0.5015281438827515,0.5070326328277588,0.5146023631095886,0.4751110374927521,0.5046493411064148,0.4844151437282562,0.498291939496994,0.4824193716049194,0.4961689114570617,0.4844836294651031,0.4829024374485016,0.5074167251586914,0.518562376499176,0.487720251083374,0.4903894066810608,0.4851247072219848,0.4823596477508545,0.5255885124206543,0.4927454888820648,0.5034799575805664,0.5011952519416809,0.4878291487693786,0.4840408265590668,0.4801797568798065,0.5074918866157532,0.5005809664726257
0.4910863637924194,0.5013957023620605,0.5007379055023193,0.4814496338367462,0.5039116740226746,0.4795972108840942,0.4880052804946899,0.518846869468689,0.5289897918701172,0.5133899450302124,0.5013421773910522,0.5106510519981384,0.4989091455936432,0.4797293543815613,0.4842479526996612,0.4931866824626922,0.4833909869194031,0.4799937307834625,0.5090776681900024,0.4852708876132965,0.493674486875534,0.4856786429882049,0.4988673627376556,0.5059674978256226,0.5138363838195801,0.478948175907135,0.5006143450737,0.4830354154109955,0.4979961216449737,0.4821038842201233,0.5020207762718201,0.4842593371868133,0.4846547842025757,0.5077773332595825,0.5162208676338196,0.4856418967247009,0.4914605021476745,0.4834752380847931,0.4814511239528656,0.5305963158607483,0.492055207490921,0.4993794560432434,0.4985761046409607,0.4902316033840179,0.4857403934001922,0.4819277226924896,0.5056256651878357,0.5007498860359192
0.4939467310905456,0.5028904676437378,0.5005134344100952,0.4808116853237152,0.5050563812255859,0.483120858669281,0.4870373010635376,0.5260513424873352,0.5303354859352112,0.5078614354133606,0.500005841255188,0.506435751914978,0.5018280148506165,0.4799281656742096,0.4846927225589752,0.4933127462863922,0.485637217760086,0.4822852611541748,0.5129700899124146,0.4821960926055908,0.4935027360916137,0.4866932332515716,0.5000175833702087,0.505203127861023,0.5150001645088196,0.481108009815216,0.5053160190582275,0.4825263917446136,0.4958306849002838,0.4877793192863464,0.498754471540451,0.4829647243022918,0.4852247834205627,0.5051604509353638,0.5103963017463684,0.4864138066768646,0.4898923635482788,0.4813334345817566,0.4832856655120849,0.5281885266304016,0.4926275312900543,0.5062211751937866,0.4992315471172333,0.5015321373939514,0.485272467136383,0.4859310090541839,0.5099738836288452,0.5067854523658752
0.4916560053825378,0.5065292119979858,0.4974975883960724,0.4822226166725158,0.5055637955665588,0.4819481968879699,0.487323522567749,0.5230122208595276,0.5271367430686951,0.5110712647438049,0.4955174326896667,0.507742702960968,0.5005934238433838,0.4793823063373565,0.485016256570816,0.4926556646823883,0.4867414236068725,0.4808956384658813,0.5122093558311462,0.4865773916244507,0.4942325055599212,0.4844960868358612,0.4991118311882019,0.4996630549430847,0.5103974938392639,0.4830251634120941,0.4995850324630737,0.4826234579086303,0.4953371286392212,0.488734483718872,0.5024493932723999,0.4815107583999634,0.4853845536708832,0.4992928802967071,0.509459912776947,0.4870601594448089,0.4913531243801117,0.4818952977657318,0.4882762432098388,0.5296372771263123,0.4905223548412323,0.5081948041915894,0.5005326271057129,0.5015231370925903,0.4854564964771271,0.4908327162265777,0.5091524124145508,0.5087480545043945
0.4908252358436584,0.5073232650756836,0.4957148134708404,0.4847962856292724,0.5049930810928345,0.484944224357605,0.4871543645858764,0.5254391431808472,0.5298973917961121,0.505742609500885,0.5016584992408752,0.5092695355415344,0.500006914138794,0.4801308214664459,0.485816091299057,0.4940916895866394,0.4885418117046356,0.4818799793720245,0.510829508304596,0.4853035509586334,0.4920843243598938,0.4862755239009857,0.4919515550136566,0.5053215026855469,0.5146492123603821,0.4890830516815185,0.5032196640968323,0.4813429117202759,0.4959180355072021,0.4907445907592773,0.5014538764953613,0.4824904501438141,0.4829590320587158,0.5037922859191895,0.5164255499839783,0.4853494167327881,0.4918287098407745,0.481864333152771,0.4890603125095367,0.5307961106300354,0.4887386560440063,0.5052757859230042,0.498664528131485,0.5120004415512085,0.4863765835762024,0.4940890371799469,0.5078600645065308,0.507269024848938
0.4896169602870941,0.5054590106010437,0.4966136217117309,0.4879276752471924,0.5042749643325806,0.4853168129920959,0.4838995337486267,0.5240811705589294,0.5270983576774597,0.5072365999221802,0.495463877916336,0.5087866187095642,0.4996089339256286,0.4822759330272674,0.4839938879013061,0.4904756247997284,0.4938843250274658,0.4827912449836731,0.512443482875824,0.4843848943710327,0.4933054745197296,0.4845300018787384,0.4912644028663635,0.5020892024040222,0.5129033923149109,0.4900009036064148,0.5029842257499695,0.4819076955318451,0.4968774914741516,0.4991809129714966,0.5009497404098511,0.4824436008930206,0.4821753203868866,0.5020820498466492,0.5152588486671448,0.4827927947044372,0.4906110167503357,0.4819470942020416,0.4959861636161804,0.5212263464927673,0.4832751750946045,0.5061511993408203,0.4999514818191528,0.5179731249809265,0.489188402891159,0.5006471872329712,0.5042346715927124,0.5102356672286987
0.4907810091972351,0.5106115341186523,0.4928547739982605,0.4880785048007965,0.5041496753692627,0.4778083860874176,0.4816247224807739,0.5248759388923645,0.5276803374290466,0.5049458146095276,0.499697208404541,0.5077459216117859,0.4992291331291199,0.4825550615787506,0.4837994873523712,0.4925262928009033,0.4986298382282257,0.4833441078662872,0.5106867551803589,0.4865888059139251,0.4942745268344879,0.4830979704856872,0.4951750338077545,0.5016922354698181,0.5110982060432434,0.4959140121936798,0.5041423439979553,0.4832218289375305,0.494165301322937,0.5020384192466736,0.5010066032409668,0.4799627065658569,0.482969731092453,0.5028504729270935,0.5137842893600464,0.4818601310253143,0.4895441830158233,0.4824177920818329,0.4997379183769226,0.5279318690299988,0.4882884919643402,0.5065882802009583,0.4955740869045257,0.5206735730171204,0.4845767319202423,0.5066952705383301,0.4993105232715606,0.5097739696502686
0.4930440485477447,0.511085033416748,0.4978709518909454,0.4918853342533111,0.5043867230415344,0.4778070449829101,0.4873229563236236,0.5207234025001526,0.5230867266654968,0.5049580931663513,0.499288946390152,0.5066113471984863,0.4990032315254211,0.4840372502803802,0.4842288792133331,0.4909819364547729,0.5031152963638306,0.4814337790012359,0.5128839015960693,0.4856688976287842,0.4929491281509399,0.4852238297462463,0.4950945973396301,0.5005743503570557,0.5127095580101013,0.497318685054779,0.5022127032279968,0.4831950068473816,0.4952423572540283,0.5058549046516418,0.5003451704978943,0.4805494248867035,0.4835546910762787,0.5039178133010864,0.5130746960639954,0.4819497466087341,0.4955300092697143,0.4833886921405792,0.5042099952697754,0.5281722545623779,0.4825683534145355,0.5046958327293396,0.4970664381980896,0.5240817070007324,0.493054062128067,0.5142463445663452,0.5050535798072815,0.5048140287399292
0.4892943799495697,0.5057824850082397,0.4954027831554413,0.4899951815605163,0.5016487240791321,0.4835432767868042,0.4870931208133697,0.5227442383766174,0.526016891002655,0.5042259097099304,0.4992859959602356,0.5021522641181946,0.4976312816143036,0.4880072772502899,0.4850739240646362,0.4935110509395599,0.5072185397148132,0.4814536273479461,0.5071035623550415,0.4868491590023041,0.4886991679668426,0.4782493710517883,0.4960286021232605,0.501655101776123,0.5101712942123413,0.4960813522338867,0.5019368529319763,0.480310320854187,0.495297223329544,0.5116873383522034,0.4975171685218811,0.4828932881355285,0.485805481672287,0.501915454864502,0.5105614066123962,0.4820905327796936,0.4968730509281158,0.4795315861701965,0.5103767514228821,0.5246332883834839,0.4872934520244598,0.5059386491775513,0.4952639639377594,0.5309726595878601,0.4977547824382782,0.5188740491867065,0.5010655522346497,0.5112692713737488
0.4923759400844574,0.5101766586303711,0.4974258244037628,0.497409850358963,0.5016031861305237,0.4825679361820221,0.4820074737071991,0.5202356576919556,0.5231235027313232,0.5029385089874268,0.4993091225624084,0.5036906003952026,0.4973371922969818,0.4901732504367828,0.4821730256080627,0.4902701377868652,0.5083996057510376,0.4809174239635467,0.5128607153892517,0.4857966601848602,0.4925347566604614,0.482628583908081,0.4964568316936493,0.5014819502830505,0.510836660861969,0.5024495124816895,0.501232385635376,0.4772939682006836,0.4962557256221771,0.5155349969863892,0.4965355694293976,0.4813232719898224,0.4845246374607086,0.502147376537323,0.508834719657898,0.4817278385162353,0.4985347390174866,0.4764904081821441,0.5148016810417175,0.5239589810371399,0.4857374727725982,0.5054821372032166,0.4956315755844116,0.5317060947418213,0.502295970916748,0.5201965570449829,0.500404417514801,0.5119314193725586
0.490048885345459,0.5089187622070312,0.4909221529960632,0.4988787770271301,0.5038912892341614,0.4797758460044861,0.4848436713218689,0.5172832012176514,0.5237056016921997,0.5014966130256653,0.4983731210231781,0.5021480917930603,0.4978866577148437,0.4922760426998138,0.485787957906723,0.4915310442447662,0.5136735439300537,0.4782155752182007,0.5092292428016663,0.487003743648529,0.4913475215435028,0.4826915860176086,0.4938393533229828,0.4999170899391174,0.5104725956916809,0.5002059936523438,0.5012703537940979,0.4805790185928345,0.4956871569156647,0.5182996988296509,0.495661973953247,0.4786471426486969,0.4913073778152466,0.5003542304039001,0.5088239312171936,0.4820156097412109,0.5004882216453552,0.4827932715415954,0.5204833149909973,0.523960530757904,0.4838707745075226,0.5003140568733215,0.4938770234584808,0.5323348045349121,0.5050383806228638,0.5257344841957092,0.4994748830795288,0.5112441182136536
0.4888293445110321,0.5061818361282349,0.4946279227733612,0.4993398189544678,0.503797709941864,0.4819039106369018,0.4848072826862335,0.518629789352417,0.5194519758224487,0.4996872246265411,0.4993699491024017,0.5011146068572998,0.4957019686698913,0.4935925006866455,0.4812586903572082,0.4907722175121307,0.5192441940307617,0.475992739200592,0.5085388422012329,0.4843853414058685,0.492677092552185,0.4821867048740387,0.4938416182994842,0.4979426860809326,0.5050743818283081,0.5043861865997314,0.500494658946991,0.4817622005939483,0.4906978011131286,0.5200929045677185,0.4961141049861908,0.4807856678962707,0.492645651102066,0.4967893362045288,0.5080052018165588,0.4822608530521393,0.5041233897209167,0.4811211228370666,0.5260213017463684,0.5240501761436462,0.4841569364070892,0.5036330223083496,0.4930468797683716,0.5329642295837402,0.5066642165184021,0.5260100960731506,0.4971319437026977,0.5062685608863831
0.4890764653682709,0.5095042586326599,0.4967978000640869,0.5015664100646973,0.5031718611717224,0.4823116362094879,0.4846815168857574,0.5105012655258179,0.5197028517723083,0.4999245405197143,0.500076174736023,0.5032714605331421,0.4964675009250641,0.4999829232692718,0.4891487658023834,0.4887710809707641,0.513968288898468,0.4820817708969116,0.5052358508110046,0.486227810382843,0.4898468554019928,0.482126235961914,0.4921427071094513,0.4985846877098083,0.5082522034645081,0.5060648322105408,0.4983164966106415,0.4816730916500091,0.4907009303569793,0.5200594067573547,0.4986254572868347,0.4785093963146209,0.4975812137126922,0.4987121820449829,0.5037261247634888,0.4816904664039612,0.5058597922325134,0.4788528382778168,0.525848388671875,0.5212612152099609,0.4861801564693451,0.5058969855308533,0.4916375875473022,0.5310096144676208,0.5077015161514282,0.5275388360023499,0.4941093623638153,0.5111358165740967
0.491022378206253,0.5078760981559753,0.4955270290374756,0.5012503266334534,0.5027993321418762,0.4802159368991852,0.4850710928440094,0.5167572498321533,0.5184783339500427,0.4920413792133331,0.4987019598484039,0.4997167885303497,0.4958893656730652,0.5006860494613647,0.4931531250476837,0.487708181142807,0.5218152403831482,0.4814251959323883,0.5061410069465637,0.4836869835853576,0.486748456954956,0.482692539691925,0.4915660321712494,0.4982351958751678,0.5087538361549377,0.5092583894729614,0.4985489845275879,0.4793254435062408,0.4940294623374939,0.520960807800293,0.4948978424072265,0.4787323772907257,0.503675103187561,0.498039186000824,0.5088884830474854,0.4805366396903991,0.5089006423950195,0.4801830947399139,0.5280284285545349,0.5191693305969238,0.4840312898159027,0.5039414167404175,0.4928651452064514,0.5302096605300903,0.5166143178939819,0.5294232368469238,0.4978178143501282,0.5099331736564636
0.488707035779953,0.507085919380188,0.4964742362499237,0.5011234283447266,0.5027103424072266,0.481876790523529,0.4839020073413849,0.5153031349182129,0.5161474943161011,0.4961957335472107,0.4988039433956146,0.4992534518241882,0.4946620166301727,0.5066594481468201,0.497114896774292,0.4927393198013305,0.5208569765090942,0.4824323952198028,0.5085663795471191,0.4829832315444946,0.4928114116191864,0.4823562204837799,0.4916971623897552,0.4953579604625702,0.507194459438324,0.5098913908004761,0.5004200339317322,0.4812577962875366,0.494191437959671,0.5221498012542725,0.4949893355369568,0.4814025163650512,0.5058578252792358,0.4954441785812378,0.5079702138900757,0.4822341203689575,0.5042076706886292,0.4800168573856354,0.5317490696907043,0.5166590213775635,0.484283834695816,0.5066831111907959,0.4908832907676697,0.529360830783844,0.5201249718666077,0.5286272764205933,0.4994392693042755,0.5091691017150879
0.4909360110759735,0.50801682472229,0.4965320825576782,0.4990274310111999,0.5005342960357666,0.4794091582298279,0.4842991828918457,0.5122120380401611,0.5150099992752075,0.4941801726818084,0.4982583820819855,0.4971919357776642,0.4941585958003998,0.5062475204467773,0.5035238265991211,0.4902024269104004,0.522648274898529,0.485986977815628,0.5107656717300415,0.4859867095947265,0.4899542331695556,0.4818244874477386,0.4848605096340179,0.4959183037281036,0.5088460445404053,0.5087539553642273,0.4999444782733917,0.4811834394931793,0.4948790967464447,0.516811728477478,0.4950534105300903,0.4796002507209778,0.5127020478248596,0.496392160654068,0.5074020624160767,0.4801547527313232,0.5107949376106262,0.4789607524871826,0.5295372009277344,0.5133103728294373,0.4840697348117828,0.5061132907867432,0.491615742444992,0.5289297699928284,0.523204505443573,0.532224178314209,0.4995695352554321,0.5082582831382751
0.4900524020195007,0.508619487285614,0.4933527410030365,0.5004012584686279,0.4999353885650635,0.4774563312530517,0.4853614270687103,0.5089523196220398,0.510021984577179,0.4893260896205902,0.4982407391071319,0.498191088438034,0.4937009215354919,0.509505569934845,0.507851779460907,0.4926896393299103,0.5208666324615479,0.4919101297855377,0.5103851556777954,0.4849021434783935,0.4854656159877777,0.4805627763271332,0.4894131124019623,0.4964453279972076,0.5086082220077515,0.5095961689949036,0.4988091886043548,0.4804434776306152,0.4946278035640716,0.5184258818626404,0.4952040910720825,0.4787094593048095,0.5152462720870972,0.4945337474346161,0.50712651014328,0.4801219701766968,0.5113056898117065,0.4801879227161407,0.5315181016921997,0.5159266591072083,0.484769195318222,0.5029832720756531,0.4916433095932007,0.5280183553695679,0.5183541774749756,0.5301085710525513,0.4971345961093902,0.5044664740562439
